Data from thigh2_Reflection__2__15-24-17-134.txt Node

Date: Thu Aug 04 15:24:17 AEST 2022
User: kathy
Spectrometer: JAZA2503
Trigger mode: 0
Integration Time (sec): 2.439700E-1
Scans to average: 10
Electric dark correction enabled: true
Nonlinearity correction enabled: true
Boxcar width: 5
XAxis mode: Wavelengths
Number of Pixels in Spectrum: 2048
>>>>>Begin Spectral Data<<<<<
189.467	475.73
189.852	315.64
190.237	282.24
190.622	287.99
191.007	401.94
191.392	157.9
191.777	107.27
192.162	98.1
192.546	131.38
192.931	-160.91
193.316	338.69
193.701	785.18
194.086	333.06
194.47	246.88
194.855	-7223.67
195.24	-1432.66
195.624	485.64
196.009	315.65
196.393	385.89
196.778	692.3
197.163	230.59
197.547	149.02
197.931	127.09
198.316	100.72
198.7	73.51
199.085	64.75
199.469	51.53
199.853	46.07
200.237	32.8
200.622	28.24
201.006	36.57
201.39	37.06
201.774	27.97
202.158	27.55
202.542	30.05
202.926	27.53
203.31	18.95
203.694	21.34
204.078	18.51
204.462	33.14
204.846	37.99
205.23	34.14
205.614	30.24
205.998	38.03
206.381	37.45
206.765	35.74
207.149	37.67
207.532	41.39
207.916	36.21
208.3	40.39
208.683	35.67
209.067	35.25
209.45	27.53
209.834	31.6
210.217	27.13
210.601	22.11
210.984	24.57
211.367	29.24
211.751	21.63
212.134	19.62
212.517	18.34
212.901	16.75
213.284	18.74
213.667	24.62
214.05	23.57
214.433	22.43
214.816	24.04
215.199	24.83
215.582	25.64
215.965	23.18
216.348	30.41
216.731	30.96
217.114	26.36
217.497	22.43
217.88	18.78
218.262	16.09
218.645	14.91
219.028	15.22
219.411	11.71
219.793	10.22
220.176	12.14
220.559	8.48
220.941	8.67
221.324	15.78
221.706	18.9
222.089	20.6
222.471	20.07
222.853	20.81
223.236	19.64
223.618	19.35
224	15.65
224.383	16.51
224.765	15.31
225.147	12.84
225.529	9.62
225.912	6.98
226.294	3.18
226.676	2.39
227.058	0.56
227.44	0.07
227.822	-0.34
228.204	1.48
228.586	1.29
228.968	1.23
229.349	1.3
229.731	1.86
230.113	1.38
230.495	2.26
230.877	2.52
231.258	3.38
231.64	3.37
232.022	3.13
232.403	2.55
232.785	2.69
233.166	2.79
233.548	3.05
233.929	2.63
234.311	3.41
234.692	3.5
235.073	3.29
235.455	2.7
235.836	3.72
236.217	3.85
236.599	4.06
236.98	3.97
237.361	4.16
237.742	3.95
238.123	3.74
238.504	3.81
238.885	3.46
239.266	3.23
239.647	2.91
240.028	2.27
240.409	2.27
240.79	2.19
241.171	1.93
241.552	1.8
241.933	1.76
242.313	1.85
242.694	1.82
243.075	1.89
243.456	1.88
243.836	2.04
244.217	2.2
244.597	2.24
244.978	2.06
245.358	2.28
245.739	2.24
246.119	2.21
246.5	1.98
246.88	1.79
247.26	1.65
247.641	1.6
248.021	1.5
248.401	1.34
248.781	1.36
249.162	1.48
249.542	1.31
249.922	1.26
250.302	1.35
250.682	1.41
251.062	1.33
251.442	1.24
251.822	1.4
252.202	1.47
252.582	1.55
252.961	1.6
253.341	1.6
253.721	1.76
254.101	1.81
254.48	1.78
254.86	1.87
255.24	2.19
255.619	2.33
255.999	2.26
256.378	2.2
256.758	2.29
257.137	2.14
257.517	1.94
257.896	1.78
258.276	1.63
258.655	1.36
259.034	1.15
259.414	0.91
259.793	0.83
260.172	0.7
260.551	0.61
260.93	0.48
261.309	0.45
261.688	0.44
262.068	0.35
262.447	0.35
262.825	0.35
263.204	0.31
263.583	0.26
263.962	0.2
264.341	0.3
264.72	0.35
265.099	0.43
265.477	0.43
265.856	0.47
266.235	0.58
266.613	0.62
266.992	0.63
267.371	0.74
267.749	0.94
268.128	0.97
268.506	0.97
268.884	1.08
269.263	0.99
269.641	0.87
270.02	0.8
270.398	0.76
270.776	0.72
271.154	0.74
271.533	0.87
271.911	0.83
272.289	0.83
272.667	0.78
273.045	0.72
273.423	0.71
273.801	0.8
274.179	0.85
274.557	0.92
274.935	1
275.313	1.04
275.69	0.97
276.068	1
276.446	1.05
276.824	1.05
277.201	1.05
277.579	1.11
277.957	1.13
278.334	1.03
278.712	0.99
279.089	0.91
279.467	0.85
279.844	0.83
280.222	0.69
280.599	0.62
280.976	0.68
281.354	0.61
281.731	0.55
282.108	0.54
282.485	0.59
282.863	0.56
283.24	0.6
283.617	0.61
283.994	0.59
284.371	0.63
284.748	0.71
285.125	0.7
285.502	0.77
285.879	0.82
286.256	0.83
286.633	0.88
287.009	0.96
287.386	0.95
287.763	0.99
288.139	0.98
288.516	1.03
288.893	1.03
289.269	1.03
289.646	1.04
290.022	1.03
290.399	1.03
290.775	1.02
291.152	1.01
291.528	1.05
291.904	1.03
292.281	1.07
292.657	1.1
293.033	1.12
293.41	1.2
293.786	1.24
294.162	1.29
294.538	1.31
294.914	1.37
295.29	1.43
295.666	1.46
296.042	1.53
296.418	1.63
296.794	1.63
297.17	1.71
297.546	1.71
297.921	1.76
298.297	1.82
298.673	1.87
299.048	1.92
299.424	1.96
299.8	2.02
300.175	2.08
300.551	2.1
300.926	2.19
301.302	2.19
301.677	2.24
302.053	2.3
302.428	2.34
302.803	2.39
303.179	2.47
303.554	2.52
303.929	2.58
304.304	2.64
304.68	2.67
305.055	2.74
305.43	2.79
305.805	2.87
306.18	2.9
306.555	2.95
306.93	3.02
307.305	3.04
307.679	3.06
308.054	3.07
308.429	3.09
308.804	3.12
309.179	3.12
309.553	3.16
309.928	3.17
310.303	3.19
310.677	3.24
311.052	3.23
311.426	3.27
311.801	3.3
312.175	3.33
312.55	3.35
312.924	3.36
313.298	3.36
313.673	3.39
314.047	3.41
314.421	3.44
314.795	3.42
315.17	3.42
315.544	3.43
315.918	3.44
316.292	3.49
316.666	3.51
317.04	3.58
317.414	3.65
317.788	3.71
318.162	3.83
318.535	3.93
318.909	4.03
319.283	4.16
319.657	4.23
320.03	4.35
320.404	4.42
320.778	4.62
321.151	4.8
321.525	5.02
321.898	5.32
322.272	5.59
322.645	6
323.019	6.37
323.392	6.81
323.765	7.36
324.139	7.89
324.512	8.55
324.885	9.17
325.258	9.71
325.632	10.18
326.005	10.57
326.378	10.87
326.751	11.1
327.124	11.17
327.497	11.22
327.87	11.28
328.243	11.31
328.616	11.37
328.988	11.49
329.361	11.64
329.734	11.71
330.107	11.76
330.479	11.7
330.852	11.66
331.225	11.6
331.597	11.49
331.97	11.31
332.342	11.18
332.715	11.03
333.087	10.91
333.46	10.78
333.832	10.71
334.204	10.78
334.577	10.83
334.949	10.84
335.321	10.89
335.693	10.84
336.065	10.72
336.438	10.63
336.81	10.44
337.182	10.29
337.554	10.16
337.926	10.13
338.298	10.01
338.669	9.93
339.041	9.88
339.413	9.82
339.785	9.78
340.157	9.7
340.528	9.68
340.9	9.62
341.272	9.55
341.643	9.5
342.015	9.49
342.386	9.48
342.758	9.54
343.129	9.65
343.501	9.67
343.872	9.7
344.243	9.75
344.615	9.75
344.986	9.67
345.357	9.69
345.728	9.66
346.099	9.64
346.471	9.61
346.842	9.59
347.213	9.52
347.584	9.49
347.955	9.49
348.326	9.38
348.697	9.32
349.067	9.29
349.438	9.28
349.809	9.3
350.18	9.4
350.55	9.41
350.921	9.45
351.292	9.51
351.662	9.54
352.033	9.54
352.403	9.57
352.774	9.55
353.144	9.56
353.515	9.58
353.885	9.57
354.255	9.56
354.626	9.55
354.996	9.5
355.366	9.46
355.736	9.42
356.107	9.41
356.477	9.36
356.847	9.4
357.217	9.38
357.587	9.37
357.957	9.38
358.327	9.37
358.697	9.38
359.066	9.42
359.436	9.43
359.806	9.45
360.176	9.49
360.546	9.5
360.915	9.51
361.285	9.51
361.654	9.49
362.024	9.47
362.393	9.46
362.763	9.47
363.132	9.46
363.502	9.46
363.871	9.48
364.24	9.44
364.61	9.42
364.979	9.42
365.348	9.43
365.717	9.46
366.087	9.46
366.456	9.47
366.825	9.48
367.194	9.5
367.563	9.51
367.932	9.49
368.301	9.51
368.669	9.56
369.038	9.56
369.407	9.55
369.776	9.53
370.145	9.54
370.513	9.55
370.882	9.5
371.25	9.48
371.619	9.47
371.988	9.46
372.356	9.45
372.724	9.43
373.093	9.4
373.461	9.38
373.83	9.38
374.198	9.36
374.566	9.33
374.934	9.33
375.303	9.33
375.671	9.32
376.039	9.3
376.407	9.33
376.775	9.32
377.143	9.33
377.511	9.32
377.879	9.33
378.247	9.32
378.615	9.33
378.982	9.35
379.35	9.34
379.718	9.34
380.086	9.34
380.453	9.34
380.821	9.33
381.188	9.33
381.556	9.34
381.923	9.31
382.291	9.32
382.658	9.31
383.026	9.31
383.393	9.32
383.76	9.33
384.128	9.36
384.495	9.33
384.862	9.34
385.229	9.35
385.596	9.34
385.963	9.36
386.33	9.38
386.697	9.37
387.064	9.35
387.431	9.34
387.798	9.3
388.165	9.27
388.532	9.27
388.899	9.25
389.265	9.24
389.632	9.23
389.999	9.23
390.365	9.22
390.732	9.23
391.098	9.23
391.465	9.22
391.831	9.23
392.198	9.22
392.564	9.22
392.93	9.23
393.297	9.22
393.663	9.23
394.029	9.24
394.395	9.24
394.762	9.25
395.128	9.26
395.494	9.28
395.86	9.3
396.226	9.33
396.592	9.34
396.958	9.34
397.323	9.35
397.689	9.36
398.055	9.39
398.421	9.41
398.787	9.42
399.152	9.44
399.518	9.45
399.883	9.44
400.249	9.46
400.615	9.47
400.98	9.49
401.345	9.49
401.711	9.48
402.076	9.47
402.442	9.48
402.807	9.5
403.172	9.51
403.537	9.5
403.902	9.51
404.268	9.49
404.633	9.49
404.998	9.49
405.363	9.49
405.728	9.48
406.093	9.49
406.457	9.46
406.822	9.47
407.187	9.46
407.552	9.49
407.917	9.49
408.281	9.49
408.646	9.49
409.011	9.5
409.375	9.52
409.74	9.52
410.104	9.52
410.469	9.53
410.833	9.49
411.197	9.48
411.562	9.46
411.926	9.47
412.29	9.48
412.655	9.51
413.019	9.5
413.383	9.49
413.747	9.5
414.111	9.52
414.475	9.54
414.839	9.56
415.203	9.58
415.567	9.62
415.931	9.64
416.295	9.66
416.658	9.66
417.022	9.66
417.386	9.66
417.749	9.67
418.113	9.65
418.477	9.65
418.84	9.63
419.204	9.63
419.567	9.62
419.931	9.61
420.294	9.61
420.657	9.62
421.021	9.65
421.384	9.67
421.747	9.68
422.11	9.7
422.473	9.69
422.836	9.72
423.199	9.74
423.562	9.74
423.925	9.75
424.288	9.74
424.651	9.73
425.014	9.74
425.377	9.74
425.74	9.74
426.102	9.73
426.465	9.77
426.828	9.78
427.19	9.78
427.553	9.79
427.916	9.77
428.278	9.78
428.641	9.78
429.003	9.76
429.365	9.74
429.728	9.73
430.09	9.71
430.452	9.68
430.814	9.66
431.177	9.63
431.539	9.62
431.901	9.64
432.263	9.66
432.625	9.67
432.987	9.67
433.349	9.68
433.711	9.7
434.072	9.73
434.434	9.74
434.796	9.76
435.158	9.82
435.519	9.86
435.881	9.88
436.243	9.86
436.604	9.85
436.966	9.85
437.327	9.88
437.689	9.87
438.05	9.86
438.411	9.87
438.773	9.87
439.134	9.84
439.495	9.81
439.856	9.78
440.218	9.78
440.579	9.76
440.94	9.77
441.301	9.77
441.662	9.79
442.023	9.79
442.384	9.8
442.745	9.79
443.105	9.76
443.466	9.77
443.827	9.78
444.188	9.79
444.548	9.81
444.909	9.8
445.269	9.78
445.63	9.74
445.99	9.76
446.351	9.74
446.711	9.76
447.072	9.79
447.432	9.78
447.792	9.77
448.153	9.77
448.513	9.76
448.873	9.75
449.233	9.74
449.593	9.76
449.953	9.73
450.313	9.71
450.673	9.7
451.033	9.69
451.393	9.69
451.753	9.68
452.113	10.07
452.472	10.06
452.832	10.04
453.192	10
453.551	9.96
453.911	9.93
454.271	9.88
454.63	9.85
454.989	9.82
455.349	9.79
455.708	9.78
456.068	9.56
456.427	9.53
456.786	9.54
457.145	9.55
457.505	9.55
457.864	9.57
458.223	9.6
458.582	9.63
458.941	9.65
459.3	9.67
459.659	9.69
460.018	9.72
460.376	9.75
460.735	9.76
461.094	9.76
461.453	9.77
461.811	9.76
462.17	9.74
462.529	9.72
462.887	9.71
463.246	9.7
463.604	9.69
463.963	9.68
464.321	9.74
464.679	9.74
465.038	9.73
465.396	9.74
465.754	9.75
466.112	9.76
466.47	9.8
466.828	9.81
467.186	9.81
467.544	9.82
467.902	9.81
468.26	9.72
468.618	9.7
468.976	9.7
469.334	9.68
469.692	9.66
470.049	9.64
470.407	9.61
470.765	9.58
471.122	9.56
471.48	9.58
471.837	9.57
472.195	9.58
472.552	9.61
472.909	9.61
473.267	9.61
473.624	9.6
473.981	9.6
474.338	9.61
474.696	9.62
475.053	9.62
475.41	9.59
475.767	9.59
476.124	9.57
476.481	9.55
476.838	9.54
477.194	9.53
477.551	9.54
477.908	9.52
478.265	9.52
478.621	9.5
478.978	9.51
479.335	9.52
479.691	9.52
480.048	9.52
480.404	9.5
480.761	9.5
481.117	9.49
481.473	9.48
481.83	9.47
482.186	9.46
482.542	9.46
482.898	9.42
483.255	9.39
483.611	9.36
483.967	9.35
484.323	9.35
484.679	9.35
485.035	9.33
485.39	9.33
485.746	9.34
486.102	9.32
486.458	9.32
486.814	9.33
487.169	9.35
487.525	9.36
487.88	9.36
488.236	9.36
488.591	9.34
488.947	9.34
489.302	9.34
489.658	9.31
490.013	9.31
490.368	9.28
490.723	9.25
491.079	9.23
491.434	9.21
491.789	9.2
492.144	9.17
492.499	9.17
492.854	9.17
493.209	9.16
493.564	9.17
493.919	9.16
494.273	9.16
494.628	9.17
494.983	9.16
495.338	9.15
495.692	9.14
496.047	9.13
496.401	9.1
496.756	9.07
497.11	9.04
497.465	9.03
497.819	9.01
498.173	9
498.528	8.99
498.882	8.98
499.236	8.98
499.59	8.96
499.944	8.95
500.298	8.95
500.652	8.95
501.006	8.94
501.36	8.92
501.714	8.92
502.068	8.91
502.422	8.92
502.776	8.92
503.129	8.92
503.483	8.94
503.837	8.95
504.19	8.98
504.544	8.98
504.897	8.98
505.251	8.99
505.604	8.99
505.958	9
506.311	8.97
506.664	8.96
507.017	8.93
507.371	8.91
507.724	8.88
508.077	8.85
508.43	8.83
508.783	8.83
509.136	8.83
509.489	8.81
509.842	8.8
510.195	8.8
510.547	8.76
510.9	8.76
511.253	8.73
511.606	8.71
511.958	8.66
512.311	8.64
512.663	8.59
513.016	8.55
513.368	8.52
513.721	8.5
514.073	8.47
514.425	8.47
514.778	8.45
515.13	8.46
515.482	8.46
515.834	8.46
516.186	8.47
516.538	8.48
516.89	8.5
517.242	8.52
517.594	8.53
517.946	8.54
518.298	8.55
518.65	8.57
519.001	8.56
519.353	8.55
519.705	8.54
520.056	8.52
520.408	8.51
520.759	8.48
521.111	8.46
521.462	8.41
521.814	8.39
522.165	8.37
522.516	8.34
522.868	8.34
523.219	8.31
523.57	8.29
523.921	8.27
524.272	8.25
524.623	8.23
524.974	8.19
525.325	8.2
525.676	8.19
526.027	8.16
526.378	8.14
526.728	8.1
527.079	8.09
527.43	8.08
527.78	8.07
528.131	8.04
528.481	8.02
528.832	8.02
529.182	8.01
529.533	8
529.883	7.98
530.233	7.97
530.584	7.96
530.934	7.93
531.284	7.9
531.634	7.88
531.984	7.88
532.334	7.86
532.684	7.82
533.034	7.79
533.384	7.77
533.734	7.78
534.084	7.75
534.434	7.74
534.783	7.75
535.133	7.72
535.483	7.71
535.832	7.69
536.182	7.68
536.531	7.68
536.881	7.69
537.23	7.68
537.58	7.65
537.929	7.62
538.278	9.19
538.628	9.19
538.977	9.16
539.326	9.14
539.675	9.1
540.024	9.07
540.373	9.05
540.722	8.99
541.071	8.97
541.42	8.99
541.769	8.99
542.117	7.38
542.466	7.32
542.815	7.32
543.163	7.32
543.512	7.31
543.861	7.32
544.209	7.31
544.558	7.3
544.906	7.28
545.254	7.23
545.603	7.2
545.951	7.2
546.299	7.22
546.647	7.24
546.996	7.25
547.344	7.26
547.692	7.22
548.04	7.21
548.388	7.23
548.736	7.23
549.083	7.24
549.431	7.23
549.779	7.2
550.127	7.17
550.475	7.1
550.822	7.06
551.17	7.04
551.517	7.07
551.865	7.05
552.212	7.03
552.56	7.02
552.907	7.03
553.254	7
553.602	6.98
553.949	6.99
554.296	6.98
554.643	6.95
554.99	6.92
555.337	6.88
555.684	6.89
556.031	6.87
556.378	6.85
556.725	6.79
557.072	6.8
557.419	6.78
557.765	6.72
558.112	6.72
558.459	6.7
558.805	6.69
559.152	6.66
559.498	6.61
559.845	6.58
560.191	6.54
560.538	6.55
560.884	6.52
561.23	6.5
561.576	6.48
561.923	6.45
562.269	6.44
562.615	6.41
562.961	6.38
563.307	6.4
563.653	6.39
563.999	6.42
564.344	6.4
564.69	6.36
565.036	6.35
565.382	6.35
565.727	6.33
566.073	6.31
566.419	6.29
566.764	6.3
567.11	6.28
567.455	6.28
567.8	6.27
568.146	6.27
568.491	6.29
568.836	6.28
569.181	6.24
569.527	6.23
569.872	6.2
570.217	6.17
570.562	6.2
570.907	6.18
571.252	6.19
571.597	6.11
571.941	6.09
572.286	6.06
572.631	6.06
572.976	6.06
573.32	6.06
573.665	6.06
574.009	6.08
574.354	6.09
574.698	6.1
575.043	6.1
575.387	6.1
575.731	6.1
576.076	6.07
576.42	6.05
576.764	6
577.108	5.98
577.452	5.95
577.796	5.92
578.14	5.91
578.484	5.91
578.828	5.88
579.172	5.87
579.516	5.87
579.86	5.88
580.203	5.87
580.547	5.87
580.891	5.85
581.234	5.84
581.578	5.84
581.921	5.8
582.264	5.77
582.608	5.76
582.951	5.77
583.294	5.77
583.638	5.76
583.981	5.75
584.324	5.75
584.667	5.78
585.01	5.77
585.353	5.76
585.696	5.77
586.039	5.77
586.382	5.77
586.725	5.76
587.067	5.76
587.41	5.73
587.753	5.72
588.095	5.71
588.438	5.72
588.781	5.72
589.123	5.71
589.465	5.71
589.808	5.7
590.15	5.68
590.492	5.69
590.835	5.69
591.177	5.65
591.519	5.65
591.861	5.64
592.203	5.63
592.545	5.64
592.887	5.65
593.229	5.64
593.571	5.64
593.913	5.64
594.254	5.63
594.596	5.63
594.938	5.62
595.279	5.6
595.621	5.58
595.963	5.57
596.304	5.56
596.645	5.56
596.987	5.55
597.328	5.56
597.669	5.56
598.011	5.52
598.352	5.49
598.693	5.49
599.034	5.48
599.375	5.46
599.716	5.45
600.057	5.45
600.398	5.44
600.739	5.45
601.08	5.46
601.42	5.47
601.761	5.48
602.102	5.51
602.442	5.52
602.783	5.54
603.123	5.55
603.464	5.54
603.804	5.53
604.145	5.52
604.485	5.51
604.825	5.5
605.166	5.49
605.506	5.52
605.846	5.54
606.186	5.54
606.526	5.55
606.866	5.56
607.206	5.58
607.546	5.55
607.886	5.53
608.225	5.51
608.565	5.49
608.905	5.45
609.245	5.43
609.584	5.43
609.924	5.42
610.263	5.39
610.603	5.38
610.942	5.38
611.281	5.38
611.621	5.36
611.96	5.35
612.299	5.35
612.638	5.36
612.978	5.36
613.317	5.36
613.656	5.36
613.995	5.35
614.334	5.36
614.672	5.33
615.011	5.33
615.35	5.33
615.689	5.33
616.027	5.32
616.366	5.33
616.705	5.33
617.043	5.28
617.382	5.27
617.72	5.24
618.059	5.22
618.397	5.24
618.735	5.25
619.073	5.23
619.412	5.23
619.75	5.2
620.088	5.2
620.426	5.2
620.764	5.16
621.102	5.15
621.44	5.15
621.778	5.14
622.115	5.11
622.453	5.1
622.791	5.14
623.129	5.1
623.466	5.09
623.804	5.07
624.141	5.06
624.479	5.06
624.816	5.06
625.153	5.08
625.491	5.08
625.828	5.06
626.165	5.01
626.502	5
626.84	4.99
627.177	5
627.514	4.99
627.851	4.95
628.188	4.93
628.524	4.88
628.861	4.89
629.198	4.89
629.535	4.87
629.871	4.81
630.208	4.84
630.545	4.84
630.881	4.81
631.218	4.8
631.554	4.83
631.89	4.87
632.227	4.91
632.563	4.95
632.899	4.91
633.235	4.92
633.572	4.93
633.908	4.92
634.244	4.95
634.58	5
634.916	5
635.251	5.03
635.587	5.02
635.923	4.99
636.259	4.95
636.595	4.96
636.93	4.98
637.266	5
637.601	4.99
637.937	4.95
638.272	4.89
638.608	4.88
638.943	4.83
639.278	4.8
639.613	4.8
639.949	4.78
640.284	4.75
640.619	4.72
640.954	4.7
641.289	4.67
641.624	4.62
641.959	4.68
642.294	4.65
642.628	4.63
642.963	4.61
643.298	4.53
643.632	4.63
643.967	4.61
644.302	4.62
644.636	4.67
644.971	4.68
645.305	4.72
645.639	4.66
645.974	4.66
646.308	4.66
646.642	4.72
646.976	4.81
647.31	4.72
647.644	4.74
647.978	4.72
648.312	4.67
648.646	4.66
648.98	4.65
649.314	4.61
649.647	4.61
649.981	4.55
650.315	4.47
650.648	4.38
650.982	4.35
651.315	4.33
651.649	4.33
651.982	4.31
652.316	4.32
652.649	4.3
652.982	4.33
653.315	4.32
653.648	4.4
653.982	4.43
654.315	4.47
654.648	4.47
654.981	4.53
655.313	4.52
655.646	4.57
655.979	4.53
656.312	4.52
656.644	4.52
656.977	4.45
657.31	4.34
657.642	4.29
657.975	4.33
658.307	4.33
658.64	4.27
658.972	4.27
659.304	4.22
659.636	4.22
659.969	4.18
660.301	4.12
660.633	4.2
660.965	4.25
661.297	4.28
661.629	4.29
661.961	4.3
662.292	4.3
662.624	4.29
662.956	4.29
663.288	4.33
663.619	4.39
663.951	4.45
664.282	4.36
664.614	4.33
664.945	4.31
665.276	4.24
665.608	4.19
665.939	4.16
666.27	4.12
666.601	4.14
666.933	4.12
667.264	4.11
667.595	4.06
667.926	4.06
668.256	4.06
668.587	4.08
668.918	4.05
669.249	3.98
669.58	4.02
669.91	4.02
670.241	3.93
670.571	3.94
670.902	3.93
671.232	3.97
671.563	3.94
671.893	4
672.223	3.99
672.554	4.03
672.884	4.15
673.214	4.13
673.544	4.21
673.874	4.23
674.204	4.25
674.534	4.28
674.864	4.36
675.194	4.45
675.524	4.44
675.853	4.46
676.183	4.46
676.513	4.5
676.842	4.43
677.172	4.47
677.501	4.47
677.831	4.42
678.16	4.34
678.489	4.28
678.819	4.32
679.148	4.36
679.477	4.32
679.806	4.32
680.135	4.23
680.464	4.3
680.793	4.21
681.122	4.12
681.451	4.11
681.78	4.04
682.108	4.01
682.437	3.9
682.766	3.76
683.094	3.69
683.423	3.55
683.751	3.61
684.08	3.55
684.408	3.54
684.737	3.62
685.065	3.55
685.393	3.71
685.721	3.73
686.049	3.79
686.377	3.79
686.705	3.88
687.033	4.03
687.361	3.93
687.689	3.92
688.017	3.93
688.345	3.96
688.673	4
689.0	3.91
689.328	3.8
689.655	3.88
689.983	3.94
690.31	3.87
690.638	3.91
690.965	3.95
691.292	3.99
691.62	3.97
691.947	3.93
692.274	3.9
692.601	3.9
692.928	4.04
693.255	3.94
693.582	3.88
693.909	3.97
694.236	3.85
694.562	3.81
694.889	3.87
695.216	3.87
695.542	3.97
695.869	3.95
696.196	4.02
696.522	3.88
696.848	3.91
697.175	3.96
697.501	3.93
697.827	3.93
698.154	4.04
698.48	4.06
698.806	4.05
699.132	3.96
699.458	4.08
699.784	4.06
700.11	4.06
700.435	4.02
700.761	3.99
701.087	3.92
701.413	3.95
701.738	3.78
702.064	3.68
702.389	3.61
702.715	3.56
703.04	3.38
703.366	3.35
703.691	3.47
704.016	3.54
704.341	3.56
704.666	3.61
704.992	3.61
705.317	3.83
705.642	3.9
705.967	3.92
706.291	3.87
706.616	3.91
706.941	3.99
707.266	3.9
707.59	3.78
707.915	3.81
708.24	3.72
708.564	3.64
708.889	3.38
709.213	3.33
709.537	3.26
709.862	3.29
710.186	3.36
710.51	3.15
710.834	3.18
711.158	3.19
711.482	3.19
711.806	3.33
712.13	3.5
712.454	3.66
712.778	3.75
713.102	3.9
713.426	4.04
713.749	4.17
714.073	4.36
714.396	4.43
714.72	4.45
715.043	4.44
715.367	4.46
715.69	4.32
716.013	4.26
716.337	4.26
716.66	4.2
716.983	4.28
717.306	4.27
717.629	4.19
717.952	4.16
718.275	4.17
718.598	4.05
718.921	3.86
719.243	3.92
719.566	3.99
719.889	4.04
720.211	4.02
720.534	3.95
720.856	3.83
721.179	3.8
721.501	3.83
721.823	3.96
722.146	4.04
722.468	4.2
722.79	4.2
723.112	4.17
723.434	4.18
723.756	4.31
724.078	4.38
724.4	4.27
724.722	4.26
725.044	4.23
725.366	4.02
725.687	4.04
726.009	4.01
726.33	3.98
726.652	4.1
726.973	4.03
727.295	4
727.616	3.94
727.938	4.1
728.259	4.25
728.58	4.17
728.901	4.47
729.222	4.67
729.543	4.64
729.864	4.62
730.185	4.41
730.506	4.18
730.827	4.21
731.148	4.14
731.468	4
731.789	3.85
732.11	3.82
732.43	3.64
732.751	3.37
733.071	3.34
733.392	3.48
733.712	3.69
734.032	3.81
734.352	3.65
734.673	3.48
734.993	3.53
735.313	3.53
735.633	3.87
735.953	3.69
736.273	3.81
736.593	3.82
736.912	3.64
737.232	3.48
737.552	3.55
737.871	3.5
738.191	3.62
738.51	3.81
738.83	3.77
739.149	3.41
739.469	3.65
739.788	3.83
740.107	3.93
740.426	4.06
740.746	4.28
741.065	4.25
741.384	4.35
741.703	4.64
742.022	4.69
742.341	4.93
742.659	5.06
742.978	4.89
743.297	4.46
743.615	4.21
743.934	4.07
744.253	3.7
744.571	3.72
744.89	3.78
745.208	3.65
745.526	3.55
745.845	3.29
746.163	3.24
746.481	3.61
746.799	3.73
747.117	3.93
747.435	4.06
747.753	4.1
748.071	4.02
748.389	3.86
748.706	3.69
749.024	3.58
749.342	3.65
749.659	3.85
749.977	3.39
750.295	3.64
750.612	3.39
750.929	3.19
751.247	3.33
751.564	3.59
751.881	3.76
752.198	4.34
752.516	4.28
752.833	4.45
753.15	4.04
753.467	4.41
753.783	4.62
754.1	5.1
754.417	5.14
754.734	4.93
755.05	4.97
755.367	4.77
755.684	4.01
756.0	3.87
756.317	3.65
756.633	3.82
756.949	3.5
757.266	3.11
757.582	2.86
757.898	3.07
758.214	3.42
758.53	3.36
758.846	3.7
759.162	4.01
759.478	4.09
759.794	4.27
760.11	4.6
760.426	4.46
760.741	4.38
761.057	4.38
761.372	4.19
761.688	4.05
762.003	3.78
762.319	3.78
762.634	3.66
762.949	3.55
763.265	3.42
763.58	3.37
763.895	3.4
764.21	3.53
764.525	3.63
764.84	3.76
765.155	3.71
765.47	3.62
765.785	3.45
766.099	3.61
766.414	3.6
766.729	3.69
767.043	3.55
767.358	3.58
767.672	3.79
767.987	3.81
768.301	3.85
768.615	3.79
768.929	3.9
769.244	3.88
769.558	4.03
769.872	4.36
770.186	4.22
770.5	4.15
770.814	4.3
771.127	4.43
771.441	3.92
771.755	3.63
772.069	3.38
772.382	3.67
772.696	3.95
773.009	3.33
773.323	3.2
773.636	3.06
773.95	2.87
774.263	2.92
774.576	2.43
774.889	2.96
775.202	3.19
775.515	3.73
775.828	3.49
776.141	3.58
776.454	3.9
776.767	3.88
777.08	4.25
777.393	5.03
777.705	4.98
778.018	4.95
778.33	4.89
778.643	4.74
778.955	4.96
779.268	4.92
779.58	4.47
779.892	4.35
780.205	4.31
780.517	4.82
780.829	4.41
781.141	4.69
781.453	4.95
781.765	4.99
782.077	5.01
782.388	4.5
782.7	4.42
783.012	4.89
783.324	5.24
783.635	5.4
783.947	4.75
784.258	4.92
784.57	4.94
784.881	4.68
785.192	4.8
785.504	5.1
785.815	5.27
786.126	5.28
786.437	4.91
786.748	4.64
787.059	4.48
787.37	4.24
787.681	3.97
787.992	3.99
788.302	4.69
788.613	4.66
788.924	4.63
789.234	5.06
789.545	5.7
789.855	5.9
790.166	5.91
790.476	6.22
790.786	5.97
791.096	5.65
791.407	5.71
791.717	4.92
792.027	4.71
792.337	4.48
792.647	4.06
792.957	3.53
793.266	3.28
793.576	3.5
793.886	3.41
794.196	4.5
794.505	8.44
794.815	8.53
795.124	9
795.434	9.86
795.743	10.32
796.052	10.01
796.362	10.02
796.671	10.21
796.98	9.99
797.289	9.23
797.598	7.98
797.907	4.14
798.216	4.23
798.525	3.63
798.834	2.44
799.142	1.99
799.451	2.02
799.76	1.71
800.068	1.77
800.377	1.24
800.685	1.58
800.994	2.28
801.302	1.93
801.61	1.66
801.918	1.98
802.227	2.11
802.535	1.95
802.843	2.15
803.151	1.85
803.459	1.24
803.767	1.76
804.074	2.33
804.382	2.96
804.69	4.85
804.998	5.15
805.305	5.59
805.613	6.02
805.92	6
806.228	6.92
806.535	7.32
806.842	7.72
807.15	7.61
807.457	7.1
807.764	6.61
808.071	4.7
808.378	5.04
808.685	4.53
808.992	4.62
809.299	4.71
809.605	4.55
809.912	5.54
810.219	4.78
810.525	5.39
810.832	5.61
811.138	5.32
811.445	5.83
811.751	4.74
812.058	4.43
812.364	5.01
812.67	5.63
812.976	5.29
813.282	4.9
813.588	5.23
813.894	4.61
814.2	4.37
814.506	5.04
814.812	5.39
815.118	5.52
815.423	6.21
815.729	4.84
816.035	3.68
816.34	3.73
816.646	3.51
816.951	4.01
817.256	3.81
817.562	4.7
817.867	4.14
818.172	3.19
818.477	3.03
818.782	3.88
819.087	4.34
819.392	5.23
819.697	5.17
820.002	4.4
820.306	4.29
820.611	4.38
820.916	3.8
821.22	4.12
821.525	4.82
821.829	4.67
822.134	3.67
822.438	3.83
822.742	3.59
823.047	3.57
823.351	3.77
823.655	3.75
823.959	3.72
824.263	3.84
824.567	3.85
824.871	3.6
825.174	3.62
825.478	4.79
825.782	4.81
826.086	4.93
826.389	5.1
826.693	5.02
826.996	4.85
827.3	5
827.603	4.99
827.906	4.84
828.209	4.94
828.513	4.95
828.816	3.94
829.119	3.88
829.422	3.8
829.725	3.41
830.028	3.72
830.33	3.75
830.633	3.97
830.936	3.76
831.238	4.01
831.541	4.49
831.844	4.63
832.146	4.04
832.448	4.09
832.751	4.1
833.053	4.67
833.355	5.05
833.657	5.57
833.96	4.99
834.262	4.86
834.564	4.61
834.865	3.99
835.167	5.03
835.469	5.07
835.771	4.89
836.073	4.98
836.374	4.73
836.676	4.26
836.977	4
837.279	4.06
837.58	4.99
837.882	5.95
838.183	5.72
838.484	5.47
838.785	5.97
839.086	6.62
839.387	6.89
839.688	7.42
839.989	7.62
840.29	8.16
840.591	8.6
840.892	8.18
841.192	8.32
841.493	8.83
841.794	8.94
842.094	8.8
842.394	8.84
842.695	20.19
842.995	20.97
843.295	21.49
843.596	21.41
843.896	22.28
844.196	23.32
844.496	22.66
844.796	23.03
845.096	21.57
845.396	21.44
845.695	21.51
845.995	6.29
846.295	4.77
846.594	6.24
846.894	7.11
847.194	7.54
847.493	6.52
847.792	5.91
848.092	6.15
848.391	6.21
848.69	7.78
848.989	8.19
849.288	7.49
849.587	8.95
849.886	8.6
850.185	9.65
850.484	11.23
850.783	13.67
851.081	14.27
851.38	13.81
851.679	14.73
851.977	14.7
852.276	13.38
852.574	14.87
852.872	13.19
853.171	12.19
853.469	10.31
853.767	8.56
854.065	6.38
854.363	7.61
854.661	9.53
854.959	9.64
855.257	11.19
855.555	13.31
855.853	13.42
856.15	14.75
856.448	13.58
856.746	15.7
857.043	13.87
857.341	17.53
857.638	19.61
857.935	17.62
858.233	17.6
858.53	15.59
858.827	15.18
859.124	15.62
859.421	14.66
859.718	15.86
860.015	12.91
860.312	13.42
860.609	11.1
860.905	8.99
861.202	9.39
861.499	8.04
861.795	12.28
862.092	12.66
862.388	12.29
862.684	14.85
862.981	14.84
863.277	17.67
863.573	19.39
863.869	21.36
864.165	17.29
864.461	16.36
864.757	18.88
865.053	15.72
865.349	13.03
865.645	11.94
865.94	11.52
866.236	10.16
866.532	8.25
866.827	9.45
867.123	5.38
867.418	9.12
867.713	10.3
868.009	7.36
868.304	6.87
868.599	9.44
868.894	8.81
869.189	10.05
869.484	11.17
869.779	11.44
870.074	10.18
870.369	12.34
870.663	12.69
870.958	12.14
871.252	14.93
871.547	14.99
871.842	14.22
872.136	13.8
872.43	12.24
872.725	11.74
873.019	11.02
873.313	11.5
873.607	9.72
873.901	10.99
874.195	12.7
874.489	11.81
874.783	12.2
875.077	11.41
875.37	13.9
875.664	11.83
875.958	12.81
876.251	14.07
876.545	13.47
876.838	12.92
877.132	11.65
877.425	11.45
877.718	12.48
878.011	15.2
878.305	17.71
878.598	16.6
878.891	16.87
879.184	17.53
879.476	19.87
879.769	18.44
880.062	17.02
880.355	14.17
880.647	12.54
880.94	9.54
881.232	7.03
881.525	6.81
881.817	4.75
882.11	5.86
882.402	4.75
882.694	4.09
882.986	4.23
883.278	5.59
883.57	6.99
883.862	6.88
884.154	7.33
884.446	7.2
884.738	6.04
885.03	7.02
885.321	6.97
885.613	7.03
885.904	6.34
886.196	7.07
886.487	7.71
886.779	7.05
887.07	7.45
887.361	7.53
887.652	7.8
887.943	8.87
888.234	9.06
888.525	10.08
888.816	11.75
889.107	13.71
889.398	13.96
889.689	13.79
889.979	16.4
890.27	16.71
890.56	17.88
890.851	19
891.141	20.5
891.432	20.71
891.722	20.15
