Data from groin1_Reflection__2__15-22-34-886.txt Node

Date: Thu Aug 04 15:22:34 AEST 2022
User: kathy
Spectrometer: JAZA2503
Trigger mode: 0
Integration Time (sec): 2.439700E-1
Scans to average: 10
Electric dark correction enabled: true
Nonlinearity correction enabled: true
Boxcar width: 5
XAxis mode: Wavelengths
Number of Pixels in Spectrum: 2048
>>>>>Begin Spectral Data<<<<<
189.467	256.51
189.852	203.19
190.237	148.45
190.622	180.07
191.007	228.08
191.392	89.55
191.777	39.4
192.162	32.43
192.546	48.91
192.931	-63.56
193.316	293.01
193.701	324.6
194.086	141.37
194.47	80.69
194.855	-2437.44
195.24	-371.76
195.624	103.92
196.009	18.75
196.393	2.63
196.778	-31.94
197.163	43.01
197.547	0.64
197.931	-12.27
198.316	-2.28
198.7	-6.18
199.085	15.52
199.469	19.5
199.853	21.12
200.237	18.64
200.622	23.84
201.006	33.86
201.39	26.58
201.774	28.04
202.158	36.2
202.542	38.1
202.926	35.65
203.31	31.85
203.694	32.06
204.078	26.16
204.462	36.01
204.846	37.47
205.23	29.41
205.614	33.94
205.998	38.92
206.381	40.67
206.765	41.73
207.149	41.81
207.532	38.74
207.916	37.24
208.3	41.78
208.683	37.84
209.067	34.2
209.45	31.1
209.834	22.88
210.217	21.06
210.601	10.71
210.984	18.92
211.367	24.77
211.751	23.36
212.134	21.66
212.517	23.31
212.901	28.61
213.284	33.65
213.667	40.1
214.05	43.79
214.433	41.1
214.816	48.22
215.199	47.56
215.582	48.39
215.965	48.18
216.348	50.6
216.731	42.99
217.114	36.65
217.497	25.99
217.88	18.55
218.262	12.25
218.645	18.88
219.028	15.04
219.411	6.54
219.793	6.57
220.176	6.27
220.559	7.92
220.941	11.77
221.324	13.57
221.706	18.55
222.089	22.06
222.471	23.65
222.853	19.54
223.236	17.06
223.618	16.64
224	14.51
224.383	13.94
224.765	11.59
225.147	12.41
225.529	11.39
225.912	9.84
226.294	6.91
226.676	5.15
227.058	3.85
227.44	4.15
227.822	4.27
228.204	4.81
228.586	4.2
228.968	3.87
229.349	3.63
229.731	3.67
230.113	3.26
230.495	3.71
230.877	4.16
231.258	4.48
231.64	4.54
232.022	4.4
232.403	4.11
232.785	4.5
233.166	4.84
233.548	4.65
233.929	4.69
234.311	5.53
234.692	5.56
235.073	5.48
235.455	5.65
235.836	6.03
236.217	6.01
236.599	5.78
236.98	5.8
237.361	5.59
237.742	5.7
238.123	5.2
238.504	4.56
238.885	4.32
239.266	4.01
239.647	3.49
240.028	3.02
240.409	2.67
240.79	2.96
241.171	2.75
241.552	2.6
241.933	2.54
242.313	2.85
242.694	2.97
243.075	3.01
243.456	2.92
243.836	3.02
244.217	3.24
244.597	3.43
244.978	3.25
245.358	3.49
245.739	3.47
246.119	3.31
246.5	3.11
246.88	2.93
247.26	2.73
247.641	2.74
248.021	2.76
248.401	2.65
248.781	2.68
249.162	2.84
249.542	2.64
249.922	2.64
250.302	2.78
250.682	2.76
251.062	2.81
251.442	2.89
251.822	2.84
252.202	2.7
252.582	2.68
252.961	2.65
253.341	2.54
253.721	2.73
254.101	2.88
254.48	3
254.86	3.22
255.24	3.51
255.619	3.59
255.999	3.8
256.378	3.9
256.758	3.86
257.137	3.73
257.517	3.52
257.896	3.28
258.276	2.99
258.655	2.63
259.034	2.37
259.414	2.02
259.793	1.97
260.172	1.82
260.551	1.75
260.93	1.62
261.309	1.57
261.688	1.49
262.068	1.51
262.447	1.54
262.825	1.61
263.204	1.53
263.583	1.63
263.962	1.6
264.341	1.64
264.72	1.7
265.099	1.84
265.477	1.88
265.856	1.88
266.235	1.75
266.613	1.78
266.992	1.72
267.371	1.74
267.749	1.8
268.128	1.74
268.506	1.75
268.884	1.81
269.263	1.8
269.641	1.78
270.02	1.79
270.398	1.75
270.776	1.65
271.154	1.67
271.533	1.66
271.911	1.59
272.289	1.62
272.667	1.65
273.045	1.58
273.423	1.56
273.801	1.54
274.179	1.56
274.557	1.68
274.935	1.67
275.313	1.66
275.69	1.76
276.068	1.75
276.446	1.85
276.824	1.73
277.201	1.77
277.579	1.84
277.957	1.82
278.334	1.77
278.712	1.71
279.089	1.72
279.467	1.67
279.844	1.66
280.222	1.6
280.599	1.5
280.976	1.59
281.354	1.5
281.731	1.44
282.108	1.5
282.485	1.51
282.863	1.48
283.24	1.51
283.617	1.55
283.994	1.49
284.371	1.53
284.748	1.56
285.125	1.57
285.502	1.59
285.879	1.6
286.256	1.58
286.633	1.66
287.009	1.74
287.386	1.79
287.763	1.82
288.139	1.85
288.516	1.91
288.893	1.94
289.269	1.97
289.646	2.04
290.022	2.07
290.399	2.13
290.775	2.15
291.152	2.21
291.528	2.25
291.904	2.25
292.281	2.34
292.657	2.41
293.033	2.48
293.41	2.58
293.786	2.67
294.162	2.75
294.538	2.81
294.914	2.9
295.29	2.96
295.666	3.06
296.042	3.21
296.418	3.35
296.794	3.41
297.17	3.54
297.546	3.63
297.921	3.73
298.297	3.86
298.673	3.97
299.048	4.09
299.424	4.21
299.8	4.33
300.175	4.42
300.551	4.53
300.926	4.68
301.302	4.78
301.677	4.88
302.053	4.99
302.428	5.1
302.803	5.2
303.179	5.32
303.554	5.4
303.929	5.5
304.304	5.6
304.68	5.72
305.055	5.82
305.43	5.91
305.805	6.01
306.18	6.07
306.555	6.14
306.93	6.24
307.305	6.29
307.679	6.34
308.054	6.36
308.429	6.39
308.804	6.39
309.179	6.4
309.553	6.44
309.928	6.46
310.303	6.51
310.677	6.56
311.052	6.6
311.426	6.67
311.801	6.73
312.175	6.81
312.55	6.92
312.924	7
313.298	7.07
313.673	7.15
314.047	7.21
314.421	7.29
314.795	7.37
315.17	7.42
315.544	7.49
315.918	7.57
316.292	7.67
316.666	7.75
317.04	7.86
317.414	8.01
317.788	8.14
318.162	8.34
318.535	8.53
318.909	8.69
319.283	8.93
319.657	9.16
320.03	9.44
320.404	9.75
320.778	10.35
321.151	11.05
321.525	11.97
321.898	13.03
322.272	14.08
322.645	15.27
323.019	16.57
323.392	18.04
323.765	19.61
324.139	21.39
324.512	23.28
324.885	25.28
325.258	27.24
325.632	28.93
326.005	30.59
326.378	32.05
326.751	33.24
327.124	34.22
327.497	35.01
327.87	35.67
328.243	36.21
328.616	36.64
328.988	36.99
329.361	37.17
329.734	37.33
330.107	37.42
330.479	37.41
330.852	37.24
331.225	37.07
331.597	36.87
331.97	36.62
332.342	36.31
332.715	36.03
333.087	35.83
333.46	35.6
333.832	35.49
334.204	35.47
334.577	35.38
334.949	35.27
335.321	35.2
335.693	35.01
336.065	34.64
336.438	34.31
336.81	33.99
337.182	33.78
337.554	33.5
337.926	33.33
338.298	33.2
338.669	33.09
339.041	32.99
339.413	32.96
339.785	32.82
340.157	32.73
340.528	32.75
340.9	32.67
341.272	32.57
341.643	32.55
342.015	32.69
342.386	32.86
342.758	33.07
343.129	33.36
343.501	33.58
343.872	33.68
344.243	33.71
344.615	33.72
344.986	33.65
345.357	33.68
345.728	33.67
346.099	33.73
346.471	33.73
346.842	33.76
347.213	33.72
347.584	33.83
347.955	33.86
348.326	33.88
348.697	33.86
349.067	33.93
349.438	33.96
349.809	34.11
350.18	34.33
350.55	34.41
350.921	34.61
351.292	34.79
351.662	34.94
352.033	35.08
352.403	35.24
352.774	35.34
353.144	35.4
353.515	35.51
353.885	35.58
354.255	35.63
354.626	35.66
354.996	35.65
355.366	35.67
355.736	35.7
356.107	35.72
356.477	35.76
356.847	35.82
357.217	35.89
357.587	35.96
357.957	36.02
358.327	36.06
358.697	36.12
359.066	36.17
359.436	36.26
359.806	36.35
360.176	36.43
360.546	36.5
360.915	36.55
361.285	36.63
361.654	36.65
362.024	36.67
362.393	36.68
362.763	36.76
363.132	36.78
363.502	36.78
363.871	36.8
364.24	36.85
364.61	36.9
364.979	36.95
365.348	37.01
365.717	37.12
366.087	37.18
366.456	37.27
366.825	37.33
367.194	37.41
367.563	37.52
367.932	37.58
368.301	37.64
368.669	37.77
369.038	37.84
369.407	37.91
369.776	37.89
370.145	37.97
370.513	38.06
370.882	38.13
371.25	38.17
371.619	38.19
371.988	38.25
372.356	38.32
372.724	38.28
373.093	38.32
373.461	38.34
373.83	38.41
374.198	38.48
374.566	38.47
374.934	38.48
375.303	38.55
375.671	38.62
376.039	38.7
376.407	38.76
376.775	38.86
377.143	38.94
377.511	39.01
377.879	39.1
378.247	39.15
378.615	39.27
378.982	39.38
379.35	39.45
379.718	39.5
380.086	39.53
380.453	39.57
380.821	39.59
381.188	39.58
381.556	39.65
381.923	39.68
382.291	39.72
382.658	39.74
383.026	39.79
383.393	39.84
383.76	39.92
384.128	40
384.495	40.03
384.862	40.08
385.229	40.14
385.596	40.13
385.963	40.17
386.33	40.19
386.697	40.24
387.064	40.23
387.431	40.26
387.798	40.25
388.165	40.27
388.532	40.31
388.899	40.33
389.265	40.37
389.632	40.43
389.999	40.48
390.365	40.5
390.732	40.53
391.098	40.55
391.465	40.56
391.831	40.61
392.198	40.62
392.564	40.64
392.93	40.68
393.297	40.72
393.663	40.75
394.029	40.78
394.395	40.89
394.762	40.96
395.128	41.04
395.494	41.11
395.86	41.2
396.226	41.3
396.592	41.38
396.958	41.48
397.323	41.56
397.689	41.68
398.055	41.81
398.421	41.87
398.787	41.96
399.152	42.05
399.518	42.17
399.883	42.22
400.249	42.36
400.615	42.44
400.98	42.52
401.345	42.58
401.711	42.61
402.076	42.61
402.442	42.64
402.807	42.65
403.172	42.68
403.537	42.64
403.902	42.68
404.268	42.65
404.633	42.66
404.998	42.65
405.363	42.67
405.728	42.7
406.093	42.75
406.457	42.77
406.822	42.84
407.187	42.92
407.552	43.07
407.917	43.14
408.281	43.2
408.646	43.29
409.011	43.38
409.375	43.47
409.74	43.52
410.104	43.59
410.469	43.66
410.833	43.68
411.197	43.72
411.562	43.73
411.926	43.76
412.29	43.84
412.655	43.86
413.019	43.92
413.383	44.01
413.747	44.11
414.111	44.19
414.475	44.32
414.839	44.43
415.203	44.55
415.567	44.63
415.931	44.73
416.295	44.84
416.658	44.9
417.022	44.94
417.386	44.95
417.749	44.98
418.113	45
418.477	44.98
418.84	44.99
419.204	45.02
419.567	45.08
419.931	45.14
420.294	45.18
420.657	45.27
421.021	45.37
421.384	45.47
421.747	45.61
422.11	45.72
422.473	45.81
422.836	45.93
423.199	45.98
423.562	46.03
423.925	46.07
424.288	46.1
424.651	46.14
425.014	46.18
425.377	46.24
425.74	46.23
426.102	46.25
426.465	46.34
426.828	46.41
427.19	46.48
427.553	46.54
427.916	46.57
428.278	46.62
428.641	46.67
429.003	46.72
429.365	46.68
429.728	46.71
430.09	46.72
430.452	46.68
430.814	46.67
431.177	46.65
431.539	46.65
431.901	46.67
432.263	46.72
432.625	46.79
432.987	46.86
433.349	46.98
433.711	47.09
434.072	47.26
434.434	47.43
434.796	47.57
435.158	47.78
435.519	47.95
435.881	48.1
436.243	48.15
436.604	48.25
436.966	48.29
437.327	48.36
437.689	48.37
438.05	48.39
438.411	48.36
438.773	48.36
439.134	48.33
439.495	48.35
439.856	48.37
440.218	48.47
440.579	48.55
440.94	48.62
441.301	48.7
441.662	48.82
442.023	48.88
442.384	49.03
442.745	49.15
443.105	49.23
443.466	49.33
443.827	49.41
444.188	49.46
444.548	49.49
444.909	49.55
445.269	49.57
445.63	49.6
445.99	49.65
446.351	49.65
446.711	49.63
447.072	49.68
447.432	49.71
447.792	49.73
448.153	49.77
448.513	49.83
448.873	49.87
449.233	49.89
449.593	49.93
449.953	49.93
450.313	49.97
450.673	50.04
451.033	50.1
451.393	50.13
451.753	50.21
452.113	50.8
452.472	50.85
452.832	50.87
453.192	50.86
453.551	50.83
453.911	50.79
454.271	50.74
454.63	50.7
454.989	50.66
455.349	50.64
455.708	50.64
456.068	50.34
456.427	50.36
456.786	50.4
457.145	50.52
457.505	50.67
457.864	50.86
458.223	51.08
458.582	51.3
458.941	51.54
459.3	51.73
459.659	51.88
460.018	52.02
460.376	52.15
460.735	52.27
461.094	52.33
461.453	52.39
461.811	52.42
462.17	52.45
462.529	52.49
462.887	52.48
463.246	52.49
463.604	52.49
463.963	52.53
464.321	52.64
464.679	52.67
465.038	52.75
465.396	52.8
465.754	52.91
466.112	52.99
466.47	53.1
466.828	53.23
467.186	53.38
467.544	53.5
467.902	53.63
468.26	53.59
468.618	53.66
468.976	53.72
469.334	53.73
469.692	53.71
470.049	53.66
470.407	53.59
470.765	53.57
471.122	53.55
471.48	53.65
471.837	53.68
472.195	53.81
472.552	53.92
472.909	53.98
473.267	54.04
473.624	54.14
473.981	54.22
474.338	54.32
474.696	54.34
475.053	54.44
475.41	54.43
475.767	54.48
476.124	54.49
476.481	54.51
476.838	54.54
477.194	54.61
477.551	54.65
477.908	54.67
478.265	54.69
478.621	54.77
478.978	54.79
479.335	54.86
479.691	54.94
480.048	54.98
480.404	55.02
480.761	55.07
481.117	55.1
481.473	55.08
481.83	55.16
482.186	55.2
482.542	55.23
482.898	55.22
483.255	55.26
483.611	55.27
483.967	55.3
484.323	55.33
484.679	55.38
485.035	55.4
485.39	55.47
485.746	55.51
486.102	55.54
486.458	55.59
486.814	55.66
487.169	55.72
487.525	55.76
487.88	55.79
488.236	55.8
488.591	55.8
488.947	55.81
489.302	55.79
489.658	55.76
490.013	55.72
490.368	55.69
490.723	55.63
491.079	55.58
491.434	55.58
491.789	55.59
492.144	55.62
492.499	55.68
492.854	55.71
493.209	55.78
493.564	55.86
493.919	55.96
494.273	56.01
494.628	56.1
494.983	56.17
495.338	56.18
495.692	56.2
496.047	56.19
496.401	56.13
496.756	56.09
497.11	56.04
497.465	55.94
497.819	55.88
498.173	55.81
498.528	55.76
498.882	55.74
499.236	55.78
499.59	55.76
499.944	55.78
500.298	55.82
500.652	55.84
501.006	55.86
501.36	55.88
501.714	55.88
502.068	55.91
502.422	55.96
502.776	56.02
503.129	56.09
503.483	56.2
503.837	56.33
504.19	56.44
504.544	56.52
504.897	56.55
505.251	56.57
505.604	56.59
505.958	56.58
506.311	56.53
506.664	56.41
507.017	56.27
507.371	56.14
507.724	55.97
508.077	55.82
508.43	55.72
508.783	55.68
509.136	55.69
509.489	55.65
509.842	55.64
510.195	55.63
510.547	55.6
510.9	55.58
511.253	55.49
511.606	55.4
511.958	55.32
512.311	55.21
512.663	55.06
513.016	54.92
513.368	54.79
513.721	54.69
514.073	54.56
514.425	54.49
514.778	54.42
515.13	54.36
515.482	54.34
515.834	54.34
516.186	54.34
516.538	54.4
516.89	54.49
517.242	54.59
517.594	54.65
517.946	54.76
518.298	54.76
518.65	54.83
519.001	54.85
519.353	54.86
519.705	54.79
520.056	54.69
520.408	54.57
520.759	54.4
521.111	54.3
521.462	54.2
521.814	54.12
522.165	54.13
522.516	54
522.868	53.99
523.219	53.9
523.57	53.85
523.921	53.81
524.272	53.76
524.623	53.68
524.974	53.56
525.325	53.49
525.676	53.3
526.027	53.18
526.378	53.08
526.728	52.92
527.079	52.84
527.43	52.76
527.78	52.7
528.131	52.61
528.481	52.54
528.832	52.46
529.182	52.39
529.533	52.35
529.883	52.28
530.233	52.26
530.584	52.18
530.934	52.08
531.284	51.95
531.634	51.83
531.984	51.77
532.334	51.64
532.684	51.54
533.034	51.42
533.384	51.36
533.734	51.25
534.084	51.11
534.434	51
534.783	50.9
535.133	50.82
535.483	50.72
535.832	50.6
536.182	50.5
536.531	50.39
536.881	50.29
537.23	50.18
537.58	50.04
537.929	49.9
538.278	50.83
538.628	50.69
538.977	50.62
539.326	50.5
539.675	50.38
540.024	50.25
540.373	50.18
540.722	50.09
541.071	49.94
541.42	49.89
541.769	49.83
542.117	48.7
542.466	48.66
542.815	48.53
543.163	48.45
543.512	48.31
543.861	48.22
544.209	48.09
544.558	47.92
544.906	47.84
545.254	47.69
545.603	47.6
545.951	47.51
546.299	47.39
546.647	47.29
546.996	47.17
547.344	47.12
547.692	47.03
548.04	46.94
548.388	46.92
548.736	46.84
549.083	46.75
549.431	46.6
549.779	46.48
550.127	46.33
550.475	46.19
550.822	46.08
551.17	45.97
551.517	45.86
551.865	45.77
552.212	45.62
552.56	45.48
552.907	45.37
553.254	45.25
553.602	45.13
553.949	45.05
554.296	44.9
554.643	44.7
554.99	44.53
555.337	44.35
555.684	44.18
556.031	44.05
556.378	43.86
556.725	43.69
557.072	43.54
557.419	43.36
557.765	43.17
558.112	43.06
558.459	42.99
558.805	42.85
559.152	42.73
559.498	42.57
559.845	42.38
560.191	42.22
560.538	42.11
560.884	41.97
561.23	41.87
561.576	41.73
561.923	41.57
562.269	41.42
562.615	41.32
562.961	41.16
563.307	41.03
563.653	40.94
563.999	40.87
564.344	40.74
564.69	40.62
565.036	40.5
565.382	40.38
565.727	40.23
566.073	40.11
566.419	39.93
566.764	39.8
567.11	39.65
567.455	39.47
567.8	39.3
568.146	39.13
568.491	38.97
568.836	38.81
569.181	38.68
569.527	38.53
569.872	38.37
570.217	38.26
570.562	38.19
570.907	38.11
571.252	38.04
571.597	37.95
571.941	37.89
572.286	37.79
572.631	37.72
572.976	37.71
573.32	37.68
573.665	37.63
574.009	37.63
574.354	37.6
574.698	37.6
575.043	37.54
575.387	37.47
575.731	37.38
576.076	37.23
576.42	37.19
576.764	37.08
577.108	37.01
577.452	36.92
577.796	36.8
578.14	36.69
578.484	36.61
578.828	36.35
579.172	36.38
579.516	36.31
579.86	36.22
580.203	36.05
580.547	36
580.891	35.89
581.234	35.78
581.578	35.71
581.921	35.58
582.264	35.52
582.608	35.34
582.951	35.3
583.294	35.26
583.638	35.26
583.981	35.18
584.324	35.13
584.667	35.05
585.01	35.03
585.353	34.94
585.696	34.84
586.039	34.83
586.382	34.79
586.725	34.76
587.067	34.73
587.41	34.65
587.753	34.62
588.095	34.59
588.438	34.59
588.781	34.58
589.123	34.53
589.465	34.47
589.808	34.47
590.15	34.44
590.492	34.37
590.835	34.3
591.177	34.22
591.519	34.13
591.861	34.07
592.203	34.05
592.545	33.97
592.887	33.95
593.229	33.92
593.571	33.85
593.913	33.76
594.254	33.69
594.596	33.6
594.938	33.55
595.279	33.45
595.621	33.42
595.963	33.32
596.304	33.21
596.645	33.16
596.987	33.07
597.328	32.99
597.669	32.97
598.011	32.91
598.352	32.83
598.693	32.79
599.034	32.76
599.375	32.68
599.716	32.64
600.057	32.61
600.398	32.52
600.739	32.49
601.08	32.39
601.42	32.33
601.761	32.27
602.102	32.26
602.442	32.24
602.783	32.21
603.123	32.14
603.464	32.07
603.804	32
604.145	31.96
604.485	31.9
604.825	31.86
605.166	31.75
605.506	31.7
605.846	31.65
606.186	31.63
606.526	31.47
606.866	31.44
607.206	31.33
607.546	31.27
607.886	31.2
608.225	31.13
608.565	31.06
608.905	31.04
609.245	30.98
609.584	30.9
609.924	30.84
610.263	30.78
610.603	30.76
610.942	30.72
611.281	30.69
611.621	30.55
611.96	30.56
612.299	30.49
612.638	30.48
612.978	30.41
613.317	30.38
613.656	30.32
613.995	30.26
614.334	30.22
614.672	30.18
615.011	30.1
615.35	30.06
615.689	30.02
616.027	29.97
616.366	29.91
616.705	29.88
617.043	29.77
617.382	29.69
617.72	29.68
618.059	29.53
618.397	29.49
618.735	29.45
619.073	29.41
619.412	29.37
619.75	29.35
620.088	29.2
620.426	29.12
620.764	29.04
621.102	29.01
621.44	28.93
621.778	28.8
622.115	28.74
622.453	28.71
622.791	28.65
623.129	28.64
623.466	28.5
623.804	28.51
624.141	28.31
624.479	28.25
624.816	28.21
625.153	28.12
625.491	28.05
625.828	27.88
626.165	27.91
626.502	27.87
626.84	27.75
627.177	27.64
627.514	27.56
627.851	27.49
628.188	27.37
628.524	27.25
628.861	27.17
629.198	27.1
629.535	27.04
629.871	27.01
630.208	26.94
630.545	26.89
630.881	26.85
631.218	26.73
631.554	26.6
631.89	26.59
632.227	26.57
632.563	26.49
632.899	26.37
633.235	26.25
633.572	26.09
633.908	25.93
634.244	25.81
634.58	25.71
634.916	25.61
635.251	25.55
635.587	25.43
635.923	25.31
636.259	25.23
636.595	25.16
636.93	25.09
637.266	25.05
637.601	25.01
637.937	24.88
638.272	24.76
638.608	24.74
638.943	24.68
639.278	24.65
639.613	24.5
639.949	24.43
640.284	24.33
640.619	24.21
640.954	24.09
641.289	23.97
641.624	23.91
641.959	23.84
642.294	23.72
642.628	23.58
642.963	23.51
643.298	23.42
643.632	23.45
643.967	23.39
644.302	23.31
644.636	23.26
644.971	23.22
645.305	23.2
645.639	23.06
645.974	22.96
646.308	22.94
646.642	22.86
646.976	22.85
647.31	22.71
647.644	22.66
647.978	22.58
648.312	22.58
648.646	22.56
648.98	22.45
649.314	22.39
649.647	22.35
649.981	22.24
650.315	22.04
650.648	21.91
650.982	21.77
651.315	21.59
651.649	21.49
651.982	21.33
652.316	21.2
652.649	21.15
652.982	21.11
653.315	21.02
653.648	20.98
653.982	21.02
654.315	21
654.648	20.99
654.981	21.08
655.313	21.14
655.646	21.11
655.979	21.1
656.312	21.04
656.644	20.99
656.977	20.9
657.31	20.76
657.642	20.64
657.975	20.57
658.307	20.45
658.64	20.3
658.972	20.18
659.304	20.12
659.636	20.04
659.969	19.92
660.301	19.77
660.633	19.7
660.965	19.71
661.297	19.75
661.629	19.69
661.961	19.64
662.292	19.62
662.624	19.56
662.956	19.49
663.288	19.42
663.619	19.47
663.951	19.49
664.282	19.46
664.614	19.39
664.945	19.27
665.276	19.2
665.608	19.13
665.939	19.06
666.27	18.96
666.601	18.97
666.933	18.88
667.264	18.73
667.595	18.72
667.926	18.63
668.256	18.57
668.587	18.46
668.918	18.45
669.249	18.42
669.58	18.34
669.91	18.28
670.241	18.1
670.571	18.11
670.902	18.04
671.232	17.97
671.563	17.95
671.893	17.95
672.223	17.92
672.554	17.93
672.884	17.88
673.214	17.87
673.544	17.92
673.874	17.95
674.204	17.97
674.534	18.03
674.864	18
675.194	17.99
675.524	17.89
675.853	17.88
676.183	17.73
676.513	17.72
676.842	17.64
677.172	17.59
677.501	17.62
677.831	17.46
678.16	17.39
678.489	17.3
678.819	17.29
679.148	17.32
679.477	17.3
679.806	17.21
680.135	17.08
680.464	17.06
680.793	16.91
681.122	16.72
681.451	16.7
681.78	16.49
682.108	16.48
682.437	16.27
682.766	16.19
683.094	16.09
683.423	16.03
683.751	16.06
684.08	15.97
684.408	15.95
684.737	15.96
685.065	15.82
685.393	15.96
685.721	15.94
686.049	16.13
686.377	16.01
686.705	15.97
687.033	16.01
687.361	15.93
687.689	15.86
688.017	15.86
688.345	15.84
688.673	15.97
689.0	15.86
689.328	15.77
689.655	15.67
689.983	15.72
690.31	15.77
690.638	15.74
690.965	15.7
691.292	15.81
691.62	15.87
691.947	15.8
692.274	15.71
692.601	15.63
692.928	15.64
693.255	15.64
693.582	15.6
693.909	15.56
694.236	15.57
694.562	15.63
694.889	15.61
695.216	15.57
695.542	15.58
695.869	15.37
696.196	15.41
696.522	15.26
696.848	15.12
697.175	15.04
697.501	14.88
697.827	14.82
698.154	14.74
698.48	14.62
698.806	14.44
699.132	14.41
699.458	14.6
699.784	14.61
700.11	14.67
700.435	14.64
700.761	14.6
701.087	14.7
701.413	14.62
701.738	14.58
702.064	14.48
702.389	14.46
702.715	14.39
703.04	14.26
703.366	14.19
703.691	14.19
704.016	14.23
704.341	14.33
704.666	14.34
704.992	14.4
705.317	14.47
705.642	14.58
705.967	14.68
706.291	14.57
706.616	14.53
706.941	14.48
707.266	14.38
707.59	14.28
707.915	14.25
708.24	13.92
708.564	13.77
708.889	13.52
709.213	13.42
709.537	13.21
709.862	13.15
710.186	13.11
710.51	13.01
710.834	12.95
711.158	13
711.482	12.77
711.806	13.01
712.13	12.99
712.454	13.14
712.778	13.23
713.102	13.36
713.426	13.52
713.749	13.55
714.073	13.62
714.396	13.58
714.72	13.52
715.043	13.68
715.367	13.64
715.69	13.71
716.013	13.55
716.337	13.48
716.66	13.56
716.983	13.53
717.306	13.59
717.629	13.54
717.952	13.62
718.275	13.6
718.598	13.39
718.921	13.26
719.243	13.34
719.566	13.47
719.889	13.55
720.211	13.47
720.534	13.57
720.856	13.45
721.179	13.59
721.501	13.64
721.823	13.77
722.146	13.88
722.468	13.98
722.79	13.87
723.112	13.78
723.434	13.66
723.756	13.69
724.078	13.56
724.4	13.54
724.722	13.47
725.044	13.48
725.366	13.22
725.687	13.12
726.009	13.15
726.33	13
726.652	13.01
726.973	12.99
727.295	12.97
727.616	12.91
727.938	13.06
728.259	13
728.58	12.83
728.901	12.97
729.222	13.16
729.543	12.98
729.864	13
730.185	12.99
730.506	12.97
730.827	13
731.148	12.84
731.468	12.62
731.789	12.59
732.11	12.61
732.43	12.63
732.751	12.57
733.071	12.49
733.392	12.52
733.712	12.51
734.032	12.46
734.352	12.23
734.673	12.18
734.993	12.12
735.313	12.23
735.633	12.56
735.953	12.36
736.273	12.27
736.593	12.51
736.912	12.36
737.232	12.27
737.552	12.38
737.871	12.31
738.191	12.6
738.51	12.92
738.83	12.8
739.149	12.54
739.469	12.72
739.788	12.86
740.107	12.82
740.426	13
740.746	13.17
741.065	12.92
741.384	13.04
741.703	13
742.022	12.64
742.341	12.62
742.659	12.45
742.978	12.36
743.297	12.07
743.615	11.78
743.934	11.56
744.253	11.37
744.571	11.34
744.89	11.23
745.208	11.08
745.526	11.3
745.845	11.26
746.163	11.17
746.481	11.36
746.799	11.16
747.117	11.25
747.435	11.35
747.753	11.22
748.071	11.36
748.389	11.47
748.706	11.28
749.024	11.08
749.342	10.91
749.659	11.27
749.977	10.77
750.295	11.01
750.612	10.85
750.929	10.67
751.247	10.74
751.564	10.81
751.881	10.72
752.198	11.31
752.516	11.44
752.833	11.71
753.15	11.27
753.467	11.56
753.783	11.5
754.1	11.79
754.417	11.67
754.734	11.7
755.05	11.81
755.367	11.97
755.684	11.61
756.0	11.33
756.317	11.14
756.633	11.49
756.949	11.57
757.266	11.57
757.582	11.61
757.898	12.06
758.214	12.15
758.53	11.95
758.846	11.92
759.162	11.81
759.478	11.9
759.794	12.01
760.11	11.91
760.426	11.65
760.741	11.6
761.057	11.31
761.372	11.06
761.688	10.94
762.003	10.83
762.319	10.8
762.634	10.82
762.949	10.58
763.265	10.31
763.58	10.18
763.895	10.01
764.21	10.02
764.525	10.13
764.84	10.05
765.155	10.03
765.47	10.1
765.785	10.02
766.099	10.23
766.414	10.2
766.729	10.25
767.043	10.38
767.358	10.62
767.672	10.89
767.987	11.03
768.301	11.45
768.615	11.52
768.929	11.42
769.244	11.29
769.558	11.2
769.872	11.85
770.186	11.88
770.5	11.44
770.814	11.51
771.127	11.56
771.441	11.27
771.755	10.81
772.069	10.75
772.382	11.05
772.696	11.47
773.009	11.14
773.323	10.87
773.636	10.98
773.95	10.64
774.263	10.26
774.576	9.82
774.889	10.14
775.202	10.62
775.515	11.16
775.828	10.96
776.141	10.91
776.454	10.93
776.767	10.79
777.08	11.05
777.393	12.15
777.705	12.58
778.018	12.38
778.33	12.31
778.643	11.94
778.955	11.5
779.268	11.48
779.58	11.17
779.892	11.28
780.205	11.16
780.517	11.07
780.829	10.89
781.141	10.91
781.453	11.39
781.765	11.54
782.077	10.96
782.388	10.28
782.7	10.29
783.012	10.37
783.324	10.61
783.635	11.09
783.947	10.62
784.258	10.36
784.57	10.28
784.881	9.7
785.192	9.7
785.504	10.55
785.815	10.66
786.126	10.19
786.437	10.3
786.748	9.99
787.059	9.54
787.37	9.43
787.681	9.52
787.992	10
788.302	11.09
788.613	11.23
788.924	10.63
789.234	11.31
789.545	11.97
789.855	11.68
790.166	11.71
790.476	11.55
790.786	11.55
791.096	10.99
791.407	10.83
791.717	10.35
792.027	10.02
792.337	10.17
792.647	9.75
792.957	9.15
793.266	8.97
793.576	8.9
793.886	9.54
794.196	10.13
794.505	14.21
794.815	14.04
795.124	14.35
795.434	14.55
795.743	14.46
796.052	14.17
796.362	14.82
796.671	15.12
796.98	15.47
797.289	14.19
797.598	13.32
797.907	9.52
798.216	9.23
798.525	8.15
798.834	7.38
799.142	8.07
799.451	8.21
799.76	7.95
800.068	8.12
800.377	7.47
800.685	8.65
800.994	9.05
801.302	9.24
801.61	9.33
801.918	9.83
802.227	9.91
802.535	9.64
802.843	10.05
803.151	9.27
803.459	8.69
803.767	8.99
804.074	8.99
804.382	9.57
804.69	10.96
804.998	10.69
805.305	11.11
805.613	11.79
805.92	11.66
806.228	11.38
806.535	12.27
806.842	12.59
807.15	12.3
807.457	12.19
807.764	12.1
808.071	10.24
808.378	11.1
808.685	10.53
808.992	9.97
809.299	9.77
809.605	10.01
809.912	10.24
810.219	9.78
810.525	10.62
810.832	10.87
811.138	10.52
811.445	11.23
811.751	10.47
812.058	10.32
812.364	11.11
812.67	11.23
812.976	11.33
813.282	11.19
813.588	11.5
813.894	11.45
814.2	10.67
814.506	10.77
814.812	10.58
815.118	10.2
815.423	10.27
815.729	9.04
816.035	8.36
816.34	8.26
816.646	8.17
816.951	8.13
817.256	6.76
817.562	7.5
817.867	7.01
818.172	6.59
818.477	6.55
818.782	7.72
819.087	8.29
819.392	8.3
819.697	8.24
820.002	8.42
820.306	8.82
820.611	9.65
820.916	9.88
821.22	10.73
821.525	10.92
821.829	10.64
822.134	9.84
822.438	9.89
822.742	9.88
823.047	9.9
823.351	9.95
823.655	9.9
823.959	9.88
824.263	9.69
824.567	9.59
824.871	9.59
825.174	9.82
825.478	10.94
825.782	11.08
826.086	11.2
826.389	11.32
826.693	11.16
826.996	11.05
827.3	11.16
827.603	11.07
827.906	11.01
828.209	10.95
828.513	11
828.816	9.96
829.119	9.6
829.422	9.5
829.725	9.32
830.028	9.37
830.33	9.66
830.633	9.69
830.936	9.47
831.238	9.58
831.541	9.93
831.844	9.54
832.146	9.23
832.448	9.47
832.751	9.61
833.053	9.87
833.355	10.03
833.657	9.63
833.96	9.27
834.262	9.48
834.564	9.44
834.865	8.9
835.167	10.47
835.469	10.28
835.771	9.67
836.073	9.51
836.374	8.95
836.676	8.63
836.977	8.87
837.279	8.89
837.58	10.11
837.882	10.53
838.183	10.65
838.484	9.19
838.785	9.42
839.086	10.26
839.387	10.69
839.688	12.05
839.989	12.4
840.29	12.33
840.591	13.02
840.892	12.67
841.192	13.39
841.493	12.55
841.794	12.99
842.094	13.49
842.394	13.2
842.695	10.39
842.995	8.56
843.295	7.55
843.596	7.95
843.896	7.37
844.196	6.86
844.496	4.2
844.796	5.83
845.096	4.42
845.396	2.91
845.695	3.63
845.995	9.56
846.295	10.81
846.594	12.55
846.894	12.58
847.194	12.37
847.493	11.02
847.792	9.94
848.092	10.05
848.391	10.35
848.69	12.31
848.989	11.97
849.288	9.85
849.587	8.67
849.886	8.01
850.185	8.43
850.484	10.67
850.783	14.24
851.081	16.79
851.38	15.47
851.679	16.93
851.977	16.55
852.276	17.01
852.574	18.75
852.872	19.51
853.171	19.74
853.469	17.35
853.767	12.15
854.065	9.05
854.363	9.51
854.661	9.28
854.959	8.57
855.257	6.77
855.555	7.36
855.853	4.78
856.15	3.52
856.448	1.98
856.746	1.72
857.043	2.36
857.341	6.97
857.638	9.98
857.935	9.83
858.233	8.82
858.53	9.17
858.827	11.81
859.124	14.4
859.421	16.02
859.718	18.65
860.015	19.09
860.312	19.36
860.609	15.18
860.905	11.72
861.202	11.96
861.499	10.83
861.795	14.86
862.092	12.63
862.388	12.19
862.684	11.97
862.981	10.79
863.277	13.09
863.573	15.32
863.869	15.84
864.165	13.18
864.461	12.37
864.757	15.47
865.053	10.82
865.349	7.81
865.645	6.14
865.94	4.45
866.236	2.56
866.532	0.55
866.827	0.08
867.123	0.08
867.418	4.54
867.713	7.35
868.009	5.07
868.304	8.24
868.599	12.69
868.894	14.96
869.189	17.19
869.484	18.1
869.779	18.46
870.074	18.52
870.369	17.44
870.663	17.25
870.958	17.42
871.252	17.84
871.547	16.42
871.842	14.74
872.136	12.31
872.43	10.28
872.725	11.25
873.019	8.43
873.313	9.04
873.607	11.08
873.901	7.4
874.195	7.98
874.489	11.62
874.783	13.82
875.077	12.12
875.37	15.06
875.664	15.04
875.958	13.99
876.251	17.36
876.545	16.79
876.838	13.87
877.132	13.24
877.425	13.26
877.718	9.85
878.011	4.77
878.305	7.05
878.598	3.15
878.891	2.59
879.184	5.05
879.476	10.1
879.769	10.75
880.062	10.71
880.355	11.77
880.647	9.21
880.94	7.53
881.232	9.72
881.525	6.91
881.817	6.92
882.11	8.14
882.402	6.66
882.694	3.54
882.986	3.1
883.278	5.43
883.57	6.81
883.862	8.59
884.154	9.8
884.446	9.54
884.738	10.72
885.03	12.38
885.321	12.66
885.613	13.26
885.904	14.05
886.196	15.11
886.487	14.64
886.779	14.53
887.07	14.27
887.361	14.16
887.652	14.9
887.943	14.9
888.234	14.41
888.525	14.85
888.816	15.76
889.107	17.09
889.398	17.3
889.689	18.31
889.979	19.84
890.27	19.25
890.56	20.09
890.851	20.15
891.141	21.26
891.432	21.7
891.722	21.75
