Data from groin3_Reflection__2__11-42-02-172.txt Node

Date: Thu Aug 04 11:42:02 AEST 2022
User: kathy
Spectrometer: JAZA2503
Trigger mode: 0
Integration Time (sec): 2.883200E-1
Scans to average: 10
Electric dark correction enabled: true
Nonlinearity correction enabled: true
Boxcar width: 5
XAxis mode: Wavelengths
Number of Pixels in Spectrum: 2048
>>>>>Begin Spectral Data<<<<<
189.467	-63.47
189.852	-127.3
190.237	-2493.69
190.622	-62.78
191.007	-10.15
191.392	-40.28
191.777	-169.87
192.162	19.25
192.546	-17.55
192.931	-127.71
193.316	-139.36
193.701	-294.18
194.086	175.48
194.47	67.92
194.855	9.2
195.24	-662.38
195.624	-27.14
196.009	447.52
196.393	432.55
196.778	-2986.61
197.163	-255.28
197.547	-101.52
197.931	-57.97
198.316	-34.71
198.7	-15.93
199.085	-10.31
199.469	-7.34
199.853	-0.59
200.237	8.54
200.622	9.69
201.006	7.6
201.39	8.42
201.774	6.87
202.158	8.15
202.542	7.96
202.926	4.22
203.31	3.69
203.694	4.43
204.078	-3.33
204.462	-1.94
204.846	4.51
205.23	1.48
205.614	-2.1
205.998	-6.96
206.381	-11.53
206.765	-13.21
207.149	-14
207.532	-8.16
207.916	-5.79
208.3	1.54
208.683	-3.05
209.067	-5.02
209.45	6.39
209.834	6.89
210.217	13.59
210.601	17.32
210.984	18.92
211.367	27.51
211.751	28.21
212.134	26.6
212.517	23.17
212.901	30.02
213.284	30.5
213.667	27.13
214.05	23.66
214.433	17.88
214.816	20.85
215.199	23.04
215.582	15
215.965	11.11
216.348	8.87
216.731	11.59
217.114	4.04
217.497	-3.15
217.88	-5.57
218.262	-4.51
218.645	-2.25
219.028	-4.5
219.411	-8.57
219.793	-7.13
220.176	-4.36
220.559	-4.06
220.941	-5.25
221.324	-4.35
221.706	0.85
222.089	2.17
222.471	5.96
222.853	4.79
223.236	5.69
223.618	6.59
224	7.64
224.383	7.01
224.765	9.12
225.147	9.25
225.529	9.26
225.912	8.48
226.294	8.85
226.676	7.2
227.058	6.98
227.44	5.94
227.822	5.1
228.204	4.28
228.586	3.73
228.968	2.87
229.349	2.55
229.731	2.76
230.113	2.47
230.495	2.1
230.877	2.18
231.258	2.18
231.64	2.19
232.022	1.91
232.403	2.12
232.785	2.46
233.166	2.69
233.548	2.9
233.929	2.53
234.311	2.7
234.692	2.37
235.073	2.03
235.455	2.11
235.836	1.85
236.217	2.09
236.599	1.8
236.98	1.4
237.361	0.84
237.742	0.52
238.123	0.78
238.504	0.65
238.885	0.94
239.266	1.06
239.647	0.78
240.028	1.07
240.409	1.26
240.79	1.36
241.171	1.45
241.552	1.64
241.933	1.64
242.313	1.51
242.694	1.64
243.075	1.89
243.456	1.74
243.836	1.96
244.217	1.87
244.597	1.78
244.978	1.78
245.358	1.85
245.739	1.78
246.119	1.62
246.5	1.68
246.88	1.65
247.26	1.42
247.641	1.58
248.021	1.48
248.401	1.49
248.781	1.5
249.162	1.55
249.542	1.5
249.922	1.6
250.302	1.74
250.682	1.76
251.062	1.79
251.442	1.88
251.822	1.87
252.202	1.94
252.582	1.95
252.961	2
253.341	2.01
253.721	2
254.101	1.9
254.48	1.91
254.86	1.84
255.24	1.8
255.619	1.92
255.999	1.67
256.378	1.5
256.758	1.56
257.137	1.55
257.517	1.46
257.896	1.47
258.276	1.43
258.655	1.32
259.034	1.25
259.414	1.18
259.793	1.03
260.172	1.14
260.551	1.13
260.93	1.12
261.309	1.04
261.688	1
262.068	1.03
262.447	1.05
262.825	1.06
263.204	1.03
263.583	1.05
263.962	1.15
264.341	1.12
264.72	1.13
265.099	1.04
265.477	1.09
265.856	1.04
266.235	0.9
266.613	0.82
266.992	0.85
267.371	0.92
267.749	0.99
268.128	0.96
268.506	0.95
268.884	0.95
269.263	0.92
269.641	0.92
270.02	1.04
270.398	1.09
270.776	1.19
271.154	1.16
271.533	1.18
271.911	1.11
272.289	1.06
272.667	1.04
273.045	1.01
273.423	1.1
273.801	1.06
274.179	1
274.557	0.99
274.935	0.96
275.313	0.94
275.69	0.91
276.068	0.92
276.446	0.91
276.824	0.93
277.201	0.99
277.579	0.98
277.957	0.99
278.334	0.98
278.712	0.96
279.089	0.94
279.467	1.03
279.844	1.04
280.222	1.03
280.599	1.11
280.976	1.09
281.354	1.02
281.731	1
282.108	1.06
282.485	1.04
282.863	1.08
283.24	1.07
283.617	1.04
283.994	1.03
284.371	1.03
284.748	0.99
285.125	1
285.502	1.03
285.879	1
286.256	0.96
286.633	1.02
287.009	1.04
287.386	1.07
287.763	1.12
288.139	1.2
288.516	1.25
288.893	1.29
289.269	1.33
289.646	1.42
290.022	1.49
290.399	1.53
290.775	1.56
291.152	1.55
291.528	1.56
291.904	1.53
292.281	1.49
292.657	1.51
293.033	1.57
293.41	1.63
293.786	1.64
294.162	1.67
294.538	1.77
294.914	1.85
295.29	1.92
295.666	2.01
296.042	2.09
296.418	2.19
296.794	2.28
297.17	2.33
297.546	2.4
297.921	2.46
298.297	2.54
298.673	2.59
299.048	2.65
299.424	2.73
299.8	2.81
300.175	2.92
300.551	3.01
300.926	3.1
301.302	3.17
301.677	3.27
302.053	3.39
302.428	3.45
302.803	3.55
303.179	3.65
303.554	3.74
303.929	3.8
304.304	3.87
304.68	3.92
305.055	3.99
305.43	4.09
305.805	4.15
306.18	4.17
306.555	4.25
306.93	4.29
307.305	4.29
307.679	4.34
308.054	4.34
308.429	4.35
308.804	4.37
309.179	4.4
309.553	4.39
309.928	4.39
310.303	4.46
310.677	4.49
311.052	4.53
311.426	4.55
311.801	4.58
312.175	4.65
312.55	4.72
312.924	4.72
313.298	4.76
313.673	4.82
314.047	4.87
314.421	4.89
314.795	4.91
315.17	4.98
315.544	5.05
315.918	5.09
316.292	5.15
316.666	5.22
317.04	5.33
317.414	5.41
317.788	5.5
318.162	5.6
318.535	5.7
318.909	5.85
319.283	5.92
319.657	6.03
320.03	6.17
320.404	6.35
320.778	6.62
321.151	6.99
321.525	7.39
321.898	7.8
322.272	8.27
322.645	8.75
323.019	9.24
323.392	9.8
323.765	10.52
324.139	11.23
324.512	11.91
324.885	12.68
325.258	13.37
325.632	13.93
326.005	14.43
326.378	14.85
326.751	15.15
327.124	15.37
327.497	15.53
327.87	15.59
328.243	15.71
328.616	15.77
328.988	15.85
329.361	15.86
329.734	15.87
330.107	15.83
330.479	15.76
330.852	15.63
331.225	15.57
331.597	15.45
331.97	15.31
332.342	15.14
332.715	15.01
333.087	14.84
333.46	14.67
333.832	14.63
334.204	14.54
334.577	14.52
334.949	14.45
335.321	14.38
335.693	14.29
336.065	14.12
336.438	13.93
336.81	13.76
337.182	13.67
337.554	13.56
337.926	13.39
338.298	13.29
338.669	13.13
339.041	13.06
339.413	13.01
339.785	12.98
340.157	12.9
340.528	12.82
340.9	12.71
341.272	12.64
341.643	12.57
342.015	12.59
342.386	12.64
342.758	12.77
343.129	12.89
343.501	12.95
343.872	12.99
344.243	12.98
344.615	12.96
344.986	12.94
345.357	12.96
345.728	12.95
346.099	12.95
346.471	12.94
346.842	12.92
347.213	12.91
347.584	12.97
347.955	12.98
348.326	12.97
348.697	12.94
349.067	12.95
349.438	12.96
349.809	12.99
350.18	13.08
350.55	13.14
350.921	13.2
351.292	13.26
351.662	13.32
352.033	13.36
352.403	13.41
352.774	13.47
353.144	13.5
353.515	13.5
353.885	13.5
354.255	13.48
354.626	13.5
354.996	13.52
355.366	13.55
355.736	13.55
356.107	13.53
356.477	13.56
356.847	13.54
357.217	13.6
357.587	13.65
357.957	13.69
358.327	13.75
358.697	13.8
359.066	13.84
359.436	13.85
359.806	13.87
360.176	13.94
360.546	13.97
360.915	13.98
361.285	13.98
361.654	14
362.024	14.02
362.393	14.04
362.763	14.08
363.132	14.09
363.502	14.12
363.871	14.16
364.24	14.19
364.61	14.24
364.979	14.31
365.348	14.39
365.717	14.45
366.087	14.5
366.456	14.56
366.825	14.61
367.194	14.7
367.563	14.78
367.932	14.87
368.301	14.93
368.669	14.99
369.038	15.06
369.407	15.12
369.776	15.18
370.145	15.27
370.513	15.32
370.882	15.41
371.25	15.48
371.619	15.57
371.988	15.65
372.356	15.78
372.724	15.88
373.093	15.99
373.461	16.09
373.83	16.18
374.198	16.3
374.566	16.43
374.934	16.49
375.303	16.58
375.671	16.67
376.039	16.79
376.407	16.89
376.775	17.01
377.143	17.13
377.511	17.27
377.879	17.39
378.247	17.54
378.615	17.69
378.982	17.88
379.35	18.05
379.718	18.19
380.086	18.33
380.453	18.47
380.821	18.59
381.188	18.72
381.556	18.85
381.923	19.02
382.291	19.14
382.658	19.27
383.026	19.4
383.393	19.54
383.76	19.72
384.128	19.84
384.495	19.96
384.862	20.09
385.229	20.23
385.596	20.37
385.963	20.51
386.33	20.64
386.697	20.76
387.064	20.89
387.431	21.02
387.798	21.16
388.165	21.33
388.532	21.47
388.899	21.59
389.265	21.71
389.632	21.82
389.999	21.93
390.365	22.05
390.732	22.15
391.098	22.24
391.465	22.35
391.831	22.43
392.198	22.52
392.564	22.6
392.93	22.72
393.297	22.81
393.663	22.9
394.029	23
394.395	23.11
394.762	23.25
395.128	23.34
395.494	23.42
395.86	23.54
396.226	23.64
396.592	23.75
396.958	23.85
397.323	23.97
397.689	24.1
398.055	24.2
398.421	24.29
398.787	24.37
399.152	24.48
399.518	24.58
399.883	24.66
400.249	24.75
400.615	24.83
400.98	24.91
401.345	24.97
401.711	25.03
402.076	25.08
402.442	25.16
402.807	25.21
403.172	25.26
403.537	25.34
403.902	25.38
404.268	25.45
404.633	25.51
404.998	25.59
405.363	25.63
405.728	25.7
406.093	25.77
406.457	25.82
406.822	25.93
407.187	26.03
407.552	26.1
407.917	26.2
408.281	26.27
408.646	26.37
409.011	26.45
409.375	26.55
409.74	26.65
410.104	26.72
410.469	26.8
410.833	26.86
411.197	26.9
411.562	26.97
411.926	27.01
412.29	27.07
412.655	27.12
413.019	27.18
413.383	27.26
413.747	27.33
414.111	27.4
414.475	27.49
414.839	27.55
415.203	27.62
415.567	27.71
415.931	27.79
416.295	27.88
416.658	27.92
417.022	27.96
417.386	27.99
417.749	28.01
418.113	28.06
418.477	28.09
418.84	28.15
419.204	28.22
419.567	28.23
419.931	28.29
420.294	28.33
420.657	28.42
421.021	28.51
421.384	28.59
421.747	28.67
422.11	28.73
422.473	28.81
422.836	28.87
423.199	28.89
423.562	28.93
423.925	28.99
424.288	29.03
424.651	29.07
425.014	29.08
425.377	29.14
425.74	29.18
426.102	29.26
426.465	29.3
426.828	29.36
427.19	29.43
427.553	29.52
427.916	29.57
428.278	29.63
428.641	29.68
429.003	29.74
429.365	29.78
429.728	29.83
430.09	29.84
430.452	29.85
430.814	29.85
431.177	29.88
431.539	29.92
431.901	29.98
432.263	30.03
432.625	30.08
432.987	30.14
433.349	30.21
433.711	30.3
434.072	30.4
434.434	30.52
434.796	30.65
435.158	30.81
435.519	30.92
435.881	31
436.243	31.1
436.604	31.21
436.966	31.31
437.327	31.37
437.689	31.4
438.05	31.47
438.411	31.52
438.773	31.61
439.134	31.64
439.495	31.69
439.856	31.75
440.218	31.84
440.579	31.91
440.94	31.98
441.301	32.11
441.662	32.21
442.023	32.31
442.384	32.4
442.745	32.48
443.105	32.56
443.466	32.65
443.827	32.73
444.188	32.77
444.548	32.85
444.909	32.93
445.269	32.97
445.63	33.06
445.99	33.11
446.351	33.22
446.711	33.24
447.072	33.32
447.432	33.4
447.792	33.5
448.153	33.58
448.513	33.65
448.873	33.72
449.233	33.8
449.593	33.82
449.953	33.85
450.313	33.9
450.673	33.96
451.033	33.99
451.393	34.03
451.753	34.09
452.113	34.44
452.472	34.47
452.832	34.47
453.192	34.5
453.551	34.59
453.911	34.69
454.271	34.74
454.63	34.83
454.989	34.92
455.349	34.99
455.708	35.03
456.068	34.9
456.427	34.96
456.786	35.04
457.145	35.13
457.505	35.23
457.864	35.33
458.223	35.47
458.582	35.58
458.941	35.71
459.3	35.81
459.659	35.89
460.018	35.98
460.376	36.04
460.735	36.08
461.094	36.13
461.453	36.16
461.811	36.19
462.17	36.2
462.529	36.22
462.887	36.2
463.246	36.22
463.604	36.26
463.963	36.3
464.321	36.44
464.679	36.48
465.038	36.52
465.396	36.57
465.754	36.63
466.112	36.69
466.47	36.77
466.828	36.86
467.186	36.95
467.544	37.01
467.902	37.08
468.26	37.05
468.618	37.14
468.976	37.19
469.334	37.22
469.692	37.24
470.049	37.27
470.407	37.25
470.765	37.26
471.122	37.31
471.48	37.38
471.837	37.46
472.195	37.55
472.552	37.64
472.909	37.73
473.267	37.83
473.624	37.94
473.981	38
474.338	38.09
474.696	38.19
475.053	38.24
475.41	38.33
475.767	38.39
476.124	38.43
476.481	38.46
476.838	38.51
477.194	38.54
477.551	38.59
477.908	38.67
478.265	38.72
478.621	38.78
478.978	38.85
479.335	38.87
479.691	38.94
480.048	39.01
480.404	39.06
480.761	39.12
481.117	39.21
481.473	39.24
481.83	39.3
482.186	39.32
482.542	39.37
482.898	39.4
483.255	39.46
483.611	39.49
483.967	39.52
484.323	39.57
484.679	39.62
485.035	39.67
485.39	39.7
485.746	39.73
486.102	39.78
486.458	39.79
486.814	39.83
487.169	39.86
487.525	39.89
487.88	39.92
488.236	39.94
488.591	39.96
488.947	39.94
489.302	39.96
489.658	39.96
490.013	39.95
490.368	39.97
490.723	39.97
491.079	39.97
491.434	39.98
491.789	39.98
492.144	39.97
492.499	39.98
492.854	40.01
493.209	40.04
493.564	40.06
493.919	40.1
494.273	40.11
494.628	40.1
494.983	40.12
495.338	40.14
495.692	40.15
496.047	40.15
496.401	40.13
496.756	40.1
497.11	40.07
497.465	40.02
497.819	39.98
498.173	39.96
498.528	39.97
498.882	40
499.236	40.03
499.59	40.08
499.944	40.13
500.298	40.19
500.652	40.23
501.006	40.26
501.36	40.28
501.714	40.29
502.068	40.3
502.422	40.28
502.776	40.25
503.129	40.23
503.483	40.23
503.837	40.23
504.19	40.21
504.544	40.17
504.897	40.13
505.251	40.05
505.604	39.99
505.958	39.92
506.311	39.86
506.664	39.79
507.017	39.66
507.371	39.52
507.724	39.37
508.077	39.25
508.43	39.13
508.783	39.08
509.136	39.04
509.489	39
509.842	38.95
510.195	38.9
510.547	38.85
510.9	38.81
511.253	38.76
511.606	38.69
511.958	38.6
512.311	38.54
512.663	38.42
513.016	38.32
513.368	38.22
513.721	38.16
514.073	38.05
514.425	37.98
514.778	37.93
515.13	37.87
515.482	37.84
515.834	37.77
516.186	37.72
516.538	37.68
516.89	37.66
517.242	37.66
517.594	37.62
517.946	37.61
518.298	37.57
518.65	37.52
519.001	37.45
519.353	37.36
519.705	37.29
520.056	37.19
520.408	37.09
520.759	36.97
521.111	36.86
521.462	36.78
521.814	36.68
522.165	36.62
522.516	36.55
522.868	36.47
523.219	36.4
523.57	36.29
523.921	36.2
524.272	36.12
524.623	36.03
524.974	35.88
525.325	35.74
525.676	35.63
526.027	35.5
526.378	35.37
526.728	35.27
527.079	35.16
527.43	35.09
527.78	34.99
528.131	34.91
528.481	34.81
528.832	34.75
529.182	34.69
529.533	34.63
529.883	34.58
530.233	34.5
530.584	34.42
530.934	34.35
531.284	34.26
531.634	34.16
531.984	34.06
532.334	33.97
532.684	33.87
533.034	33.75
533.384	33.62
533.734	33.51
534.084	33.41
534.434	33.3
534.783	33.19
535.133	33.08
535.483	33
535.832	32.92
536.182	32.81
536.531	32.75
536.881	32.67
537.23	32.57
537.58	32.44
537.929	32.33
538.278	33.18
538.628	33.03
538.977	32.91
539.326	32.79
539.675	32.67
540.024	32.59
540.373	32.45
540.722	32.35
541.071	32.27
541.42	32.21
541.769	32.14
542.117	31.08
542.466	31.01
542.815	30.93
543.163	30.82
543.512	30.72
543.861	30.65
544.209	30.54
544.558	30.43
544.906	30.32
545.254	30.18
545.603	30.09
545.951	30.02
546.299	29.97
546.647	29.9
546.996	29.82
547.344	29.74
547.692	29.64
548.04	29.58
548.388	29.5
548.736	29.42
549.083	29.36
549.431	29.22
549.779	29.09
550.127	28.96
550.475	28.84
550.822	28.73
551.17	28.64
551.517	28.53
551.865	28.4
552.212	28.3
552.56	28.19
552.907	28.04
553.254	27.97
553.602	27.85
553.949	27.74
554.296	27.55
554.643	27.43
554.99	27.28
555.337	27.12
555.684	26.99
556.031	26.85
556.378	26.7
556.725	26.61
557.072	26.44
557.419	26.34
557.765	26.22
558.112	26.16
558.459	26.05
558.805	25.96
559.152	25.87
559.498	25.74
559.845	25.61
560.191	25.49
560.538	25.38
560.884	25.26
561.23	25.12
561.576	24.98
561.923	24.85
562.269	24.77
562.615	24.66
562.961	24.55
563.307	24.47
563.653	24.44
563.999	24.32
564.344	24.24
564.69	24.18
565.036	24.11
565.382	24.04
565.727	23.94
566.073	23.79
566.419	23.68
566.764	23.58
567.11	23.46
567.455	23.34
567.8	23.24
568.146	23.12
568.491	22.97
568.836	22.86
569.181	22.76
569.527	22.66
569.872	22.58
570.217	22.47
570.562	22.36
570.907	22.27
571.252	22.18
571.597	22.1
571.941	22.01
572.286	21.92
572.631	21.87
572.976	21.82
573.32	21.78
573.665	21.72
574.009	21.72
574.354	21.62
574.698	21.58
575.043	21.56
575.387	21.53
575.731	21.45
576.076	21.4
576.42	21.38
576.764	21.36
577.108	21.28
577.452	21.22
577.796	21.18
578.14	21.11
578.484	21.05
578.828	20.97
579.172	20.95
579.516	20.88
579.86	20.85
580.203	20.76
580.547	20.73
580.891	20.67
581.234	20.64
581.578	20.58
581.921	20.53
582.264	20.52
582.608	20.44
582.951	20.44
583.294	20.35
583.638	20.33
583.981	20.27
584.324	20.2
584.667	20.17
585.01	20.12
585.353	20.07
585.696	20.03
586.039	20
586.382	19.99
586.725	19.93
587.067	19.9
587.41	19.88
587.753	19.87
588.095	19.83
588.438	19.83
588.781	19.72
589.123	19.7
589.465	19.67
589.808	19.58
590.15	19.57
590.492	19.53
590.835	19.52
591.177	19.43
591.519	19.41
591.861	19.36
592.203	19.35
592.545	19.34
592.887	19.26
593.229	19.2
593.571	19.17
593.913	19.15
594.254	19.1
594.596	19.03
594.938	19.02
595.279	19
595.621	18.95
595.963	18.94
596.304	18.92
596.645	18.88
596.987	18.86
597.328	18.81
597.669	18.78
598.011	18.71
598.352	18.69
598.693	18.66
599.034	18.63
599.375	18.55
599.716	18.55
600.057	18.54
600.398	18.52
600.739	18.5
601.08	18.45
601.42	18.35
601.761	18.33
602.102	18.29
602.442	18.24
602.783	18.21
603.123	18.13
603.464	18.07
603.804	18.02
604.145	17.89
604.485	17.91
604.825	17.88
605.166	17.83
605.506	17.78
605.846	17.75
606.186	17.71
606.526	17.67
606.866	17.58
607.206	17.57
607.546	17.47
607.886	17.48
608.225	17.42
608.565	17.39
608.905	17.36
609.245	17.32
609.584	17.29
609.924	17.26
610.263	17.24
610.603	17.19
610.942	17.15
611.281	17.12
611.621	17.09
611.96	17.03
612.299	17.01
612.638	17.01
612.978	16.98
613.317	16.94
613.656	16.88
613.995	16.85
614.334	16.82
614.672	16.74
615.011	16.69
615.35	16.64
615.689	16.63
616.027	16.6
616.366	16.57
616.705	16.55
617.043	16.51
617.382	16.47
617.72	16.42
618.059	16.37
618.397	16.33
618.735	16.29
619.073	16.28
619.412	16.26
619.75	16.23
620.088	16.13
620.426	16.15
620.764	16.06
621.102	16.02
621.44	16
621.778	16
622.115	16
622.453	15.98
622.791	15.95
623.129	15.93
623.466	15.87
623.804	15.84
624.141	15.78
624.479	15.75
624.816	15.69
625.153	15.65
625.491	15.63
625.828	15.6
626.165	15.57
626.502	15.56
626.84	15.48
627.177	15.44
627.514	15.38
627.851	15.33
628.188	15.25
628.524	15.19
628.861	15.16
629.198	15.1
629.535	15.06
629.871	15.02
630.208	14.99
630.545	14.97
630.881	14.9
631.218	14.84
631.554	14.76
631.89	14.71
632.227	14.64
632.563	14.58
632.899	14.54
633.235	14.51
633.572	14.46
633.908	14.43
634.244	14.35
634.58	14.28
634.916	14.25
635.251	14.24
635.587	14.16
635.923	14.12
636.259	14.06
636.595	14.01
636.93	13.99
637.266	13.97
637.601	13.88
637.937	13.85
638.272	13.84
638.608	13.8
638.943	13.71
639.278	13.72
639.613	13.69
639.949	13.65
640.284	13.62
640.619	13.54
640.954	13.45
641.289	13.38
641.624	13.32
641.959	13.24
642.294	13.17
642.628	13.15
642.963	13.04
643.298	12.97
643.632	12.97
643.967	12.9
644.302	12.83
644.636	12.77
644.971	12.76
645.305	12.67
645.639	12.63
645.974	12.58
646.308	12.54
646.642	12.51
646.976	12.48
647.31	12.4
647.644	12.33
647.978	12.28
648.312	12.26
648.646	12.21
648.98	12.22
649.314	12.2
649.647	12.17
649.981	12.11
650.315	12.02
650.648	11.95
650.982	11.86
651.315	11.87
651.649	11.83
651.982	11.78
652.316	11.69
652.649	11.65
652.982	11.64
653.315	11.57
653.648	11.63
653.982	11.64
654.315	11.61
654.648	11.61
654.981	11.55
655.313	11.58
655.646	11.56
655.979	11.62
656.312	11.55
656.644	11.46
656.977	11.46
657.31	11.33
657.642	11.3
657.975	11.27
658.307	11.27
658.64	11.25
658.972	11.24
659.304	11.18
659.636	11.13
659.969	11.13
660.301	11.13
660.633	11.12
660.965	11.14
661.297	11.11
661.629	11.13
661.961	11.07
662.292	11.03
662.624	10.97
662.956	10.97
663.288	11
663.619	11.01
663.951	10.96
664.282	10.93
664.614	10.88
664.945	10.87
665.276	10.83
665.608	10.82
665.939	10.75
666.27	10.63
666.601	10.56
666.933	10.45
667.264	10.39
667.595	10.33
667.926	10.34
668.256	10.31
668.587	10.26
668.918	10.27
669.249	10.26
669.58	10.23
669.91	10.31
670.241	10.37
670.571	10.39
670.902	10.37
671.232	10.35
671.563	10.27
671.893	10.23
672.223	10.28
672.554	10.26
672.884	10.26
673.214	10.29
673.544	10.29
673.874	10.24
674.204	10.25
674.534	10.21
674.864	10.2
675.194	10.16
675.524	10.17
675.853	10.18
676.183	10.07
676.513	10.04
676.842	10.02
677.172	9.94
677.501	9.92
677.831	9.89
678.16	9.9
678.489	9.92
678.819	9.91
679.148	9.81
679.477	9.7
679.806	9.62
680.135	9.53
680.464	9.48
680.793	9.46
681.122	9.38
681.451	9.24
681.78	9.24
682.108	9.2
682.437	9.21
682.766	9.29
683.094	9.34
683.423	9.35
683.751	9.36
684.08	9.35
684.408	9.36
684.737	9.39
685.065	9.45
685.393	9.41
685.721	9.39
686.049	9.36
686.377	9.34
686.705	9.27
687.033	9.31
687.361	9.33
687.689	9.36
688.017	9.3
688.345	9.32
688.673	9.28
689.0	9.23
689.328	9.21
689.655	9.2
689.983	9.18
690.31	9.19
690.638	9.16
690.965	9.12
691.292	8.99
691.62	9
691.947	8.92
692.274	8.97
692.601	9
692.928	8.97
693.255	8.88
693.582	8.81
693.909	8.72
694.236	8.65
694.562	8.64
694.889	8.66
695.216	8.63
695.542	8.69
695.869	8.61
696.196	8.49
696.522	8.52
696.848	8.52
697.175	8.57
697.501	8.6
697.827	8.67
698.154	8.65
698.48	8.6
698.806	8.61
699.132	8.54
699.458	8.67
699.784	8.71
700.11	8.69
700.435	8.66
700.761	8.58
701.087	8.59
701.413	8.61
701.738	8.61
702.064	8.61
702.389	8.59
702.715	8.59
703.04	8.55
703.366	8.53
703.691	8.58
704.016	8.59
704.341	8.58
704.666	8.49
704.992	8.38
705.317	8.32
705.642	8.3
705.967	8.24
706.291	8.2
706.616	8.13
706.941	8.13
707.266	8.05
707.59	8.06
707.915	8.12
708.24	8.09
708.564	8.13
708.889	8.16
709.213	8.19
709.537	8.19
709.862	8.22
710.186	8.14
710.51	8.15
710.834	8.22
711.158	8.32
711.482	8.32
711.806	8.45
712.13	8.39
712.454	8.21
712.778	8.22
713.102	8.13
713.426	8.05
713.749	7.99
714.073	7.95
714.396	7.86
714.72	7.74
715.043	7.69
715.367	7.51
715.69	7.5
716.013	7.65
716.337	7.57
716.66	7.74
716.983	7.82
717.306	7.85
717.629	7.74
717.952	7.76
718.275	7.75
718.598	7.61
718.921	7.82
719.243	7.9
719.566	7.96
719.889	8.11
720.211	8
720.534	7.94
720.856	7.96
721.179	8.08
721.501	7.99
721.823	8.01
722.146	8.17
722.468	8.02
722.79	7.82
723.112	7.62
723.434	7.51
723.756	7.46
724.078	7.49
724.4	7.34
724.722	7.28
725.044	7.08
725.366	6.9
725.687	6.82
726.009	6.76
726.33	6.8
726.652	7.05
726.973	6.99
727.295	7.11
727.616	7.04
727.938	7.3
728.259	7.43
728.58	7.61
728.901	7.72
729.222	7.72
729.543	7.82
729.864	7.8
730.185	7.62
730.506	7.69
730.827	7.53
731.148	7.45
731.468	7.35
731.789	7.19
732.11	7.18
732.43	7.06
732.751	7.08
733.071	7.03
733.392	7.24
733.712	7.19
734.032	7.24
734.352	7.27
734.673	7.34
734.993	7.23
735.313	7.29
735.633	7.54
735.953	7.67
736.273	7.82
736.593	7.95
736.912	7.96
737.232	8.13
737.552	8.03
737.871	8.08
738.191	8.15
738.51	8.28
738.83	8.48
739.149	8.28
739.469	8.21
739.788	7.94
740.107	7.67
740.426	7.35
740.746	7.2
741.065	7.12
741.384	7.05
741.703	6.9
742.022	6.76
742.341	6.48
742.659	6.37
742.978	6.22
743.297	6.36
743.615	6.35
743.934	6.42
744.253	6.45
744.571	6.62
744.89	6.7
745.208	6.86
745.526	7.06
745.845	7.01
746.163	6.98
746.481	7.59
746.799	7.66
747.117	7.99
747.435	8.11
747.753	8.25
748.071	8.27
748.389	8.16
748.706	8.1
749.024	7.95
749.342	8.04
749.659	8.25
749.977	7.69
750.295	7.7
750.612	7.58
750.929	7.45
751.247	7.55
751.564	7.34
751.881	7.5
752.198	7.8
752.516	7.93
752.833	7.79
753.15	7.65
753.467	7.5
753.783	7.24
754.1	7.13
754.417	7.15
754.734	6.81
755.05	6.96
755.367	6.74
755.684	6.36
756.0	6.29
756.317	6.34
756.633	6.31
756.949	6.83
757.266	6.95
757.582	6.92
757.898	6.95
758.214	6.84
758.53	6.76
758.846	6.83
759.162	6.58
759.478	6.48
759.794	6.5
760.11	6.31
760.426	6.01
760.741	6.05
761.057	6.08
761.372	5.72
761.688	5.97
762.003	6.15
762.319	6.04
762.634	6.29
762.949	6.48
763.265	6.74
763.58	6.9
763.895	6.99
764.21	6.94
764.525	6.82
764.84	7.06
765.155	7
765.47	6.91
765.785	6.84
766.099	6.97
766.414	6.72
766.729	6.37
767.043	6.57
767.358	6.55
767.672	6.46
767.987	6.41
768.301	6.45
768.615	6.44
768.929	6.3
769.244	6.43
769.558	6.8
769.872	6.99
770.186	7.1
770.5	6.92
770.814	6.69
771.127	6.99
771.441	7.1
771.755	7.37
772.069	7.06
772.382	6.86
772.696	7.03
773.009	6.58
773.323	6.43
773.636	6.49
773.95	6.4
774.263	7.03
774.576	6.44
774.889	6.72
775.202	6.14
775.515	6.62
775.828	6.62
776.141	6.9
776.454	6.72
776.767	6.64
777.08	6.57
777.393	6.6
777.705	5.88
778.018	6.3
778.33	6.23
778.643	6.57
778.955	6.19
779.268	6.58
779.58	6.47
779.892	6.66
780.205	6.76
780.517	6.52
780.829	6.75
781.141	7.51
781.453	7.72
781.765	7.83
782.077	7.46
782.388	8.01
782.7	7.74
783.012	7.86
783.324	7.63
783.635	7.67
783.947	7.76
784.258	7.12
784.57	6.42
784.881	6.36
785.192	5.56
785.504	5.63
785.815	5.19
786.126	5.14
786.437	4.85
786.748	4.85
787.059	4.82
787.37	5.17
787.681	5.61
787.992	6.17
788.302	6.4
788.613	7.2
788.924	7.29
789.234	7.95
789.545	8.32
789.855	8.01
790.166	7.8
790.476	7.74
790.786	8.09
791.096	8.18
791.407	8.36
791.717	7.62
792.027	6.81
792.337	6.74
792.647	6.15
792.957	5.98
793.266	6.41
793.576	6.18
793.886	6.01
794.196	5.29
794.505	7.17
794.815	6.5
795.124	6.72
795.434	7.56
795.743	6.89
796.052	6.64
796.362	6.66
796.671	6
796.98	6.73
797.289	6.84
797.598	6.47
797.907	4.39
798.216	4.46
798.525	4.8
798.834	4.83
799.142	5.96
799.451	6.19
799.76	6.28
800.068	6.75
800.377	6.94
800.685	7.92
800.994	8.65
801.302	8.93
801.61	9.46
801.918	9.62
802.227	9.13
802.535	9.33
802.843	9.5
803.151	9.3
803.459	9.24
803.767	8.87
804.074	7.32
804.382	7.1
804.69	7.72
804.998	7.48
805.305	6.78
805.613	7.02
805.92	6.51
806.228	6.33
806.535	5.51
806.842	4.93
807.15	4.58
807.457	5.46
807.764	4.93
808.071	3.82
808.378	3.48
808.685	4.16
808.992	3.7
809.299	4
809.605	3.69
809.912	4.74
810.219	4.92
810.525	5.19
810.832	4.59
811.138	5.59
811.445	5.99
811.751	5.76
812.058	5.34
812.364	5.8
812.67	5.62
812.976	5.56
813.282	5.07
813.588	5.2
813.894	5.68
814.2	5.92
814.506	5.26
814.812	5.09
815.118	5.47
815.423	5.65
815.729	6.25
816.035	6.6
816.34	6.83
816.646	8.03
816.951	8.67
817.256	8.25
817.562	8.75
817.867	8.68
818.172	8.88
818.477	9.35
818.782	9.17
819.087	9.1
819.392	8.53
819.697	8.75
820.002	7.57
820.306	7.03
820.611	6.89
820.916	6.64
821.22	7.04
821.525	6.54
821.829	6.57
822.134	6.55
822.438	6.17
822.742	6.17
823.047	6.25
823.351	6.33
823.655	6.52
823.959	6.46
824.263	6.42
824.567	6.4
824.871	6.61
825.174	6.58
825.478	7.5
825.782	7.8
826.086	8.03
826.389	8.02
826.693	8.11
826.996	8.21
827.3	8.32
827.603	8.37
827.906	8.34
828.209	8.52
828.513	8.57
828.816	7.46
829.119	7.19
829.422	7.25
829.725	7.25
830.028	7.2
830.33	6.56
830.633	6.58
830.936	6.61
831.238	6.79
831.541	6.51
831.844	6.22
832.146	6.22
832.448	6.58
832.751	6.23
833.053	6.32
833.355	6.87
833.657	7.1
833.96	7.2
834.262	7.32
834.564	7.1
834.865	6.58
835.167	7.55
835.469	7.37
835.771	6.86
836.073	6.75
836.374	6.39
836.676	5.77
836.977	6.3
837.279	6.47
837.58	6.61
837.882	7.14
838.183	7.67
838.484	6.4
838.785	6.28
839.086	6.64
839.387	6.96
839.688	7.44
839.989	8.18
840.29	7.74
840.591	7.72
840.892	6.99
841.192	6.77
841.493	6.03
841.794	6.9
842.094	7.3
842.394	7
842.695	14.22
842.995	14.77
843.295	14.23
843.596	15.04
843.896	14.72
844.196	14.73
844.496	13.87
844.796	15.95
845.096	15.59
845.396	15.14
845.695	16.2
845.995	7.07
846.295	6.46
846.594	7.19
846.894	8.34
847.194	7.22
847.493	8.47
847.792	9.24
848.092	7.96
848.391	6.2
848.69	7.87
848.989	8.73
849.288	6.91
849.587	7.29
849.886	6.9
850.185	5.7
850.484	8.9
850.783	8.22
851.081	8.28
851.38	9.41
851.679	13.02
851.977	13.43
852.276	12.21
852.574	13.93
852.872	13.54
853.171	12.81
853.469	10.41
853.767	8.6
854.065	9.69
854.363	7.6
854.661	7.37
854.959	5
855.257	2.93
855.555	1.18
855.853	1.18
856.15	0.46
856.448	1.58
856.746	4.65
857.043	4
857.341	3.61
857.638	6.71
857.935	4.93
858.233	5.17
858.53	7.27
858.827	8.88
859.124	6.41
859.421	4.92
859.718	4.62
860.015	3.51
860.312	2.82
860.609	3.18
860.905	2.52
861.202	3.39
861.499	4.29
861.795	4.36
862.092	4.44
862.388	4.21
862.684	5.89
862.981	6.73
863.277	4.94
863.573	7.28
863.869	5.76
864.165	2.61
864.461	2.74
864.757	2.31
865.053	2.26
865.349	1.99
865.645	1.98
865.94	0.7
866.236	0.7
866.532	0.67
866.827	0.67
867.123	1.28
867.418	3.38
867.713	2.08
868.009	2.08
868.304	2.08
868.599	2.08
868.894	0.65
869.189	0.8
869.484	4.45
869.779	6.68
870.074	7.81
870.369	9.19
870.663	10.58
870.958	10.74
871.252	11.63
871.547	13.94
871.842	14.6
872.136	12.59
872.43	12.97
872.725	12.91
873.019	10.05
873.313	11.44
873.607	7.64
873.901	4.29
874.195	4.83
874.489	5.94
874.783	4.1
875.077	2.12
875.37	5.93
875.664	7.02
875.958	5.71
876.251	6.23
876.545	3.26
876.838	4.18
877.132	8.57
877.425	9.15
877.718	7.72
878.011	6.69
878.305	8.79
878.598	6.27
878.891	5.11
879.184	6.39
879.476	7.23
879.769	6.97
880.062	7.05
880.355	2.97
880.647	2.81
880.94	2.2
881.232	1.31
881.525	1.31
881.817	1.31
882.11	1.31
882.402	1.31
882.694	1.31
882.986	0.05
883.278	1.44
883.57	2.96
883.862	3.58
884.154	4.7
884.446	5.73
884.738	6.81
885.03	7.92
885.321	7.87
885.613	8.62
885.904	8.95
886.196	9.27
886.487	9.43
886.779	8.57
887.07	8.68
887.361	8.41
887.652	8.38
887.943	8.3
888.234	7.95
888.525	7.71
888.816	6.91
889.107	6.89
889.398	6.14
889.689	6.31
889.979	6.86
890.27	7.38
890.56	8.24
890.851	8.38
891.141	7.84
891.432	6.31
891.722	8.54
