Data from groin1_Reflection__2__11-40-41-188.txt Node

Date: Thu Aug 04 11:40:41 AEST 2022
User: kathy
Spectrometer: JAZA2503
Trigger mode: 0
Integration Time (sec): 2.883200E-1
Scans to average: 10
Electric dark correction enabled: true
Nonlinearity correction enabled: true
Boxcar width: 5
XAxis mode: Wavelengths
Number of Pixels in Spectrum: 2048
>>>>>Begin Spectral Data<<<<<
189.467	-162.54
189.852	-487.98
190.237	-8680.63
190.622	-493.31
191.007	-150.73
191.392	-160.83
191.777	64.78
192.162	-208.24
192.546	-187.68
192.931	-185.12
193.316	-213.63
193.701	-325.74
194.086	304.52
194.47	134.45
194.855	152.27
195.24	-1718.59
195.624	-288.24
196.009	971.32
196.393	442.86
196.778	-1709.62
197.163	-52
197.547	-43.19
197.931	4.83
198.316	21.85
198.7	26.05
199.085	24.26
199.469	23.41
199.853	25.79
200.237	28.81
200.622	26.1
201.006	22.74
201.39	18.27
201.774	19.9
202.158	18.82
202.542	15.16
202.926	9.95
203.31	9.04
203.694	10.95
204.078	2.36
204.462	4.14
204.846	7.35
205.23	5.33
205.614	9.39
205.998	2.76
206.381	0.54
206.765	1.78
207.149	0.18
207.532	1.12
207.916	2.15
208.3	3.99
208.683	4.35
209.067	4.27
209.45	8.68
209.834	9.33
210.217	14.12
210.601	14.25
210.984	17.77
211.367	20.9
211.751	20.88
212.134	19.87
212.517	20.23
212.901	20.83
213.284	20.31
213.667	20.15
214.05	21.63
214.433	19.35
214.816	20.84
215.199	20.28
215.582	19.34
215.965	20.12
216.348	17.67
216.731	22.52
217.114	15.92
217.497	12.01
217.88	7.57
218.262	3.58
218.645	1.08
219.028	-3.59
219.411	-7.13
219.793	-7.37
220.176	-7.14
220.559	-5.72
220.941	-11.39
221.324	-5.84
221.706	-4.43
222.089	-3.08
222.471	0.81
222.853	0.75
223.236	2.13
223.618	1.82
224	3.2
224.383	2.56
224.765	4.12
225.147	4.52
225.529	3.59
225.912	3.8
226.294	4.53
226.676	2.81
227.058	3.53
227.44	3.78
227.822	3.51
228.204	2.92
228.586	3.06
228.968	2.7
229.349	2.74
229.731	3.02
230.113	2.53
230.495	2.31
230.877	2.44
231.258	2.31
231.64	2.09
232.022	1.72
232.403	1.76
232.785	2.22
233.166	2.32
233.548	2.45
233.929	2.18
234.311	2.12
234.692	1.49
235.073	1.54
235.455	1.88
235.836	1.71
236.217	2.32
236.599	2.03
236.98	1.18
237.361	0.65
237.742	0.37
238.123	0.54
238.504	0.9
238.885	1.21
239.266	1.17
239.647	0.89
240.028	1.14
240.409	1.13
240.79	1.43
241.171	1.53
241.552	1.71
241.933	1.72
242.313	1.61
242.694	1.54
243.075	1.73
243.456	1.59
243.836	1.77
244.217	1.75
244.597	1.79
244.978	1.8
245.358	1.95
245.739	1.96
246.119	1.88
246.5	1.89
246.88	1.85
247.26	1.75
247.641	1.79
248.021	1.71
248.401	1.72
248.781	1.69
249.162	1.61
249.542	1.56
249.922	1.57
250.302	1.65
250.682	1.59
251.062	1.63
251.442	1.55
251.822	1.52
252.202	1.48
252.582	1.47
252.961	1.35
253.341	1.39
253.721	1.31
254.101	1.24
254.48	1.21
254.86	1.08
255.24	1.09
255.619	1.33
255.999	1.16
256.378	1.07
256.758	0.97
257.137	0.98
257.517	1.05
257.896	1.12
258.276	1.11
258.655	1.08
259.034	1.09
259.414	1.12
259.793	1.06
260.172	1.16
260.551	1.17
260.93	1.17
261.309	1.14
261.688	1.13
262.068	1.09
262.447	1.11
262.825	1.14
263.204	1.13
263.583	1.09
263.962	1.1
264.341	1.1
264.72	1.17
265.099	1.21
265.477	1.26
265.856	1.15
266.235	1.12
266.613	1.04
266.992	0.94
267.371	0.95
267.749	1
268.128	0.97
268.506	1.04
268.884	1.02
269.263	0.96
269.641	0.99
270.02	1.03
270.398	1.05
270.776	1.14
271.154	1.23
271.533	1.24
271.911	1.14
272.289	1.08
272.667	1.02
273.045	0.97
273.423	1.01
273.801	0.95
274.179	0.94
274.557	0.92
274.935	0.89
275.313	0.85
275.69	0.86
276.068	0.92
276.446	0.94
276.824	0.94
277.201	0.97
277.579	0.97
277.957	1.01
278.334	1.01
278.712	0.97
279.089	0.91
279.467	1
279.844	1.04
280.222	0.98
280.599	1.02
280.976	0.99
281.354	0.94
281.731	0.95
282.108	0.96
282.485	0.96
282.863	1
283.24	1.01
283.617	0.94
283.994	0.9
284.371	0.95
284.748	0.92
285.125	0.94
285.502	0.97
285.879	0.96
286.256	0.99
286.633	1.05
287.009	1.06
287.386	1.06
287.763	1.11
288.139	1.15
288.516	1.19
288.893	1.23
289.269	1.23
289.646	1.27
290.022	1.32
290.399	1.33
290.775	1.34
291.152	1.35
291.528	1.41
291.904	1.4
292.281	1.39
292.657	1.38
293.033	1.41
293.41	1.48
293.786	1.52
294.162	1.54
294.538	1.59
294.914	1.62
295.29	1.66
295.666	1.7
296.042	1.74
296.418	1.81
296.794	1.89
297.17	1.92
297.546	1.96
297.921	2.01
298.297	2.06
298.673	2.12
299.048	2.17
299.424	2.26
299.8	2.33
300.175	2.44
300.551	2.52
300.926	2.59
301.302	2.69
301.677	2.76
302.053	2.84
302.428	2.87
302.803	2.92
303.179	2.99
303.554	3.03
303.929	3.1
304.304	3.15
304.68	3.19
305.055	3.24
305.43	3.3
305.805	3.35
306.18	3.4
306.555	3.47
306.93	3.54
307.305	3.55
307.679	3.57
308.054	3.56
308.429	3.56
308.804	3.58
309.179	3.57
309.553	3.56
309.928	3.57
310.303	3.6
310.677	3.62
311.052	3.65
311.426	3.67
311.801	3.7
312.175	3.74
312.55	3.77
312.924	3.78
313.298	3.81
313.673	3.86
314.047	3.89
314.421	3.88
314.795	3.92
315.17	3.92
315.544	3.96
315.918	4.02
316.292	4.04
316.666	4.1
317.04	4.14
317.414	4.21
317.788	4.26
318.162	4.3
318.535	4.35
318.909	4.41
319.283	4.44
319.657	4.47
320.03	4.49
320.404	4.59
320.778	4.73
321.151	4.88
321.525	5.07
321.898	5.22
322.272	5.45
322.645	5.61
323.019	5.84
323.392	6.02
323.765	6.33
324.139	6.59
324.512	6.85
324.885	7.12
325.258	7.38
325.632	7.62
326.005	7.84
326.378	8.02
326.751	8.18
327.124	8.32
327.497	8.39
327.87	8.39
328.243	8.44
328.616	8.47
328.988	8.46
329.361	8.36
329.734	8.33
330.107	8.26
330.479	8.2
330.852	8.13
331.225	8.13
331.597	8.11
331.97	8.07
332.342	7.97
332.715	7.88
333.087	7.74
333.46	7.65
333.832	7.59
334.204	7.49
334.577	7.44
334.949	7.43
335.321	7.35
335.693	7.29
336.065	7.19
336.438	7.09
336.81	7.07
337.182	7.03
337.554	6.99
337.926	6.92
338.298	6.86
338.669	6.78
339.041	6.74
339.413	6.68
339.785	6.61
340.157	6.54
340.528	6.44
340.9	6.32
341.272	6.25
341.643	6.19
342.015	6.21
342.386	6.27
342.758	6.34
343.129	6.35
343.501	6.39
343.872	6.43
344.243	6.46
344.615	6.45
344.986	6.48
345.357	6.51
345.728	6.49
346.099	6.45
346.471	6.41
346.842	6.38
347.213	6.37
347.584	6.32
347.955	6.34
348.326	6.27
348.697	6.22
349.067	6.22
349.438	6.21
349.809	6.24
350.18	6.32
350.55	6.33
350.921	6.39
351.292	6.44
351.662	6.44
352.033	6.45
352.403	6.46
352.774	6.48
353.144	6.46
353.515	6.44
353.885	6.43
354.255	6.39
354.626	6.41
354.996	6.39
355.366	6.37
355.736	6.38
356.107	6.37
356.477	6.37
356.847	6.35
357.217	6.38
357.587	6.38
357.957	6.38
358.327	6.41
358.697	6.42
359.066	6.43
359.436	6.45
359.806	6.44
360.176	6.48
360.546	6.49
360.915	6.5
361.285	6.53
361.654	6.56
362.024	6.6
362.393	6.61
362.763	6.63
363.132	6.64
363.502	6.65
363.871	6.67
364.24	6.67
364.61	6.72
364.979	6.76
365.348	6.77
365.717	6.78
366.087	6.8
366.456	6.84
366.825	6.87
367.194	6.92
367.563	6.99
367.932	7.03
368.301	7.09
368.669	7.11
369.038	7.12
369.407	7.18
369.776	7.22
370.145	7.27
370.513	7.29
370.882	7.33
371.25	7.35
371.619	7.42
371.988	7.47
372.356	7.52
372.724	7.59
373.093	7.7
373.461	7.76
373.83	7.81
374.198	7.86
374.566	7.96
374.934	8
375.303	8.06
375.671	8.1
376.039	8.16
376.407	8.24
376.775	8.29
377.143	8.36
377.511	8.44
377.879	8.53
378.247	8.62
378.615	8.69
378.982	8.82
379.35	8.93
379.718	9.01
380.086	9.11
380.453	9.18
380.821	9.27
381.188	9.31
381.556	9.39
381.923	9.48
382.291	9.56
382.658	9.65
383.026	9.7
383.393	9.77
383.76	9.88
384.128	9.96
384.495	10.05
384.862	10.15
385.229	10.27
385.596	10.37
385.963	10.48
386.33	10.56
386.697	10.66
387.064	10.77
387.431	10.87
387.798	10.96
388.165	11.04
388.532	11.13
388.899	11.2
389.265	11.29
389.632	11.37
389.999	11.42
390.365	11.51
390.732	11.58
391.098	11.63
391.465	11.71
391.831	11.77
392.198	11.86
392.564	11.92
392.93	12.01
393.297	12.07
393.663	12.12
394.029	12.2
394.395	12.28
394.762	12.36
395.128	12.43
395.494	12.49
395.86	12.58
396.226	12.62
396.592	12.67
396.958	12.73
397.323	12.79
397.689	12.86
398.055	12.92
398.421	12.98
398.787	13.04
399.152	13.12
399.518	13.17
399.883	13.22
400.249	13.29
400.615	13.36
400.98	13.41
401.345	13.47
401.711	13.51
402.076	13.54
402.442	13.59
402.807	13.64
403.172	13.68
403.537	13.72
403.902	13.75
404.268	13.79
404.633	13.84
404.998	13.89
405.363	13.93
405.728	13.97
406.093	14.03
406.457	14.06
406.822	14.11
407.187	14.17
407.552	14.22
407.917	14.27
408.281	14.35
408.646	14.41
409.011	14.48
409.375	14.52
409.74	14.58
410.104	14.64
410.469	14.69
410.833	14.75
411.197	14.8
411.562	14.85
411.926	14.91
412.29	14.93
412.655	14.95
413.019	14.99
413.383	15.06
413.747	15.1
414.111	15.15
414.475	15.23
414.839	15.26
415.203	15.3
415.567	15.36
415.931	15.43
416.295	15.5
416.658	15.54
417.022	15.57
417.386	15.59
417.749	15.62
418.113	15.64
418.477	15.65
418.84	15.69
419.204	15.72
419.567	15.73
419.931	15.77
420.294	15.8
420.657	15.86
421.021	15.92
421.384	15.98
421.747	16.03
422.11	16.1
422.473	16.14
422.836	16.19
423.199	16.21
423.562	16.25
423.925	16.26
424.288	16.28
424.651	16.31
425.014	16.32
425.377	16.36
425.74	16.37
426.102	16.4
426.465	16.43
426.828	16.47
427.19	16.5
427.553	16.56
427.916	16.61
428.278	16.65
428.641	16.68
429.003	16.73
429.365	16.77
429.728	16.82
430.09	16.86
430.452	16.89
430.814	16.91
431.177	16.96
431.539	16.99
431.901	17.05
432.263	17.09
432.625	17.14
432.987	17.21
433.349	17.27
433.711	17.33
434.072	17.41
434.434	17.49
434.796	17.59
435.158	17.7
435.519	17.78
435.881	17.85
436.243	17.93
436.604	17.98
436.966	18.04
437.327	18.09
437.689	18.16
438.05	18.19
438.411	18.24
438.773	18.29
439.134	18.34
439.495	18.4
439.856	18.47
440.218	18.54
440.579	18.63
440.94	18.7
441.301	18.81
441.662	18.87
442.023	19
442.384	19.09
442.745	19.18
443.105	19.23
443.466	19.29
443.827	19.34
444.188	19.41
444.548	19.46
444.909	19.52
445.269	19.57
445.63	19.66
445.99	19.69
446.351	19.74
446.711	19.74
447.072	19.84
447.432	19.9
447.792	19.98
448.153	20.03
448.513	20.1
448.873	20.17
449.233	20.22
449.593	20.26
449.953	20.3
450.313	20.35
450.673	20.46
451.033	20.5
451.393	20.55
451.753	20.58
452.113	20.94
452.472	20.98
452.832	20.99
453.192	21.03
453.551	21.09
453.911	21.17
454.271	21.24
454.63	21.3
454.989	21.36
455.349	21.41
455.708	21.46
456.068	21.34
456.427	21.4
456.786	21.47
457.145	21.54
457.505	21.61
457.864	21.68
458.223	21.79
458.582	21.89
458.941	21.99
459.3	22.08
459.659	22.17
460.018	22.25
460.376	22.33
460.735	22.38
461.094	22.44
461.453	22.5
461.811	22.58
462.17	22.63
462.529	22.68
462.887	22.73
463.246	22.79
463.604	22.85
463.963	22.93
464.321	22.87
464.679	22.93
465.038	22.98
465.396	23.05
465.754	23.11
466.112	23.19
466.47	23.26
466.828	23.37
467.186	23.45
467.544	23.55
467.902	23.62
468.26	23.87
468.618	23.97
468.976	24.08
469.334	24.17
469.692	24.25
470.049	24.32
470.407	24.37
470.765	24.44
471.122	24.52
471.48	24.62
471.837	24.74
472.195	24.84
472.552	24.96
472.909	25.09
473.267	25.22
473.624	25.36
473.981	25.46
474.338	25.58
474.696	25.71
475.053	25.81
475.41	25.94
475.767	26.05
476.124	26.16
476.481	26.27
476.838	26.35
477.194	26.46
477.551	26.55
477.908	26.66
478.265	26.79
478.621	26.89
478.978	26.99
479.335	27.08
479.691	27.19
480.048	27.3
480.404	27.4
480.761	27.53
481.117	27.63
481.473	27.72
481.83	27.82
482.186	27.89
482.542	27.99
482.898	28.1
483.255	28.2
483.611	28.29
483.967	28.37
484.323	28.47
484.679	28.57
485.035	28.68
485.39	28.8
485.746	28.88
486.102	28.97
486.458	29.05
486.814	29.14
487.169	29.24
487.525	29.34
487.88	29.41
488.236	29.49
488.591	29.59
488.947	29.63
489.302	29.7
489.658	29.77
490.013	29.85
490.368	29.93
490.723	29.99
491.079	30
491.434	30.05
491.789	30.13
492.144	30.17
492.499	30.21
492.854	30.27
493.209	30.34
493.564	30.4
493.919	30.46
494.273	30.5
494.628	30.55
494.983	30.66
495.338	30.72
495.692	30.78
496.047	30.86
496.401	30.9
496.756	30.96
497.11	30.99
497.465	31.05
497.819	31.07
498.173	31.11
498.528	31.15
498.882	31.21
499.236	31.29
499.59	31.37
499.944	31.46
500.298	31.52
500.652	31.56
501.006	31.62
501.36	31.66
501.714	31.7
502.068	31.74
502.422	31.78
502.776	31.79
503.129	31.81
503.483	31.84
503.837	31.86
504.19	31.91
504.544	31.95
504.897	31.95
505.251	31.95
505.604	31.92
505.958	31.91
506.311	31.91
506.664	31.87
507.017	31.83
507.371	31.76
507.724	31.7
508.077	31.65
508.43	31.61
508.783	31.62
509.136	31.62
509.489	31.68
509.842	31.67
510.195	31.65
510.547	31.66
510.9	31.67
511.253	31.67
511.606	31.65
511.958	31.6
512.311	31.55
512.663	31.48
513.016	31.42
513.368	31.37
513.721	31.33
514.073	31.28
514.425	31.27
514.778	31.23
515.13	31.21
515.482	31.19
515.834	31.19
516.186	31.19
516.538	31.2
516.89	31.25
517.242	31.25
517.594	31.25
517.946	31.27
518.298	31.28
518.65	31.28
519.001	31.25
519.353	31.22
519.705	31.18
520.056	31.13
520.408	31.04
520.759	30.95
521.111	30.9
521.462	30.86
521.814	30.83
522.165	30.75
522.516	30.71
522.868	30.69
523.219	30.65
523.57	30.6
523.921	30.56
524.272	30.54
524.623	30.51
524.974	30.46
525.325	30.41
525.676	30.32
526.027	30.25
526.378	30.2
526.728	30.14
527.079	30.08
527.43	30.05
527.78	30.02
528.131	30
528.481	29.92
528.832	29.88
529.182	29.84
529.533	29.82
529.883	29.82
530.233	29.75
530.584	29.68
530.934	29.64
531.284	29.58
531.634	29.5
531.984	29.44
532.334	29.4
532.684	29.35
533.034	29.31
533.384	29.25
533.734	29.19
534.084	29.14
534.434	29.11
534.783	29.07
535.133	28.99
535.483	28.92
535.832	28.86
536.182	28.8
536.531	28.73
536.881	28.64
537.23	28.59
537.58	28.49
537.929	28.43
538.278	29.37
538.628	29.25
538.977	29.19
539.326	29.13
539.675	29.05
540.024	28.97
540.373	28.91
540.722	28.84
541.071	28.78
541.42	28.74
541.769	28.65
542.117	27.55
542.466	27.52
542.815	27.47
543.163	27.38
543.512	27.31
543.861	27.29
544.209	27.22
544.558	27.16
544.906	27.07
545.254	26.98
545.603	26.92
545.951	26.88
546.299	26.85
546.647	26.79
546.996	26.74
547.344	26.7
547.692	26.63
548.04	26.56
548.388	26.52
548.736	26.48
549.083	26.43
549.431	26.39
549.779	26.31
550.127	26.21
550.475	26.12
550.822	26.06
551.17	25.94
551.517	25.85
551.865	25.8
552.212	25.71
552.56	25.65
552.907	25.58
553.254	25.47
553.602	25.38
553.949	25.29
554.296	25.19
554.643	25.11
554.99	25.01
555.337	24.92
555.684	24.79
556.031	24.68
556.378	24.55
556.725	24.45
557.072	24.38
557.419	24.29
557.765	24.2
558.112	24.14
558.459	24.04
558.805	23.97
559.152	23.88
559.498	23.81
559.845	23.71
560.191	23.6
560.538	23.52
560.884	23.39
561.23	23.33
561.576	23.21
561.923	23.09
562.269	23.03
562.615	22.92
562.961	22.83
563.307	22.76
563.653	22.71
563.999	22.63
564.344	22.56
564.69	22.52
565.036	22.42
565.382	22.39
565.727	22.32
566.073	22.21
566.419	22.13
566.764	22.07
567.11	21.98
567.455	21.89
567.8	21.82
568.146	21.73
568.491	21.61
568.836	21.53
569.181	21.43
569.527	21.36
569.872	21.29
570.217	21.22
570.562	21.11
570.907	21.01
571.252	20.94
571.597	20.87
571.941	20.76
572.286	20.7
572.631	20.63
572.976	20.62
573.32	20.6
573.665	20.55
574.009	20.54
574.354	20.49
574.698	20.43
575.043	20.41
575.387	20.35
575.731	20.29
576.076	20.27
576.42	20.23
576.764	20.22
577.108	20.14
577.452	20.15
577.796	20.03
578.14	19.97
578.484	19.93
578.828	19.87
579.172	19.86
579.516	19.77
579.86	19.76
580.203	19.68
580.547	19.63
580.891	19.52
581.234	19.5
581.578	19.46
581.921	19.39
582.264	19.33
582.608	19.29
582.951	19.24
583.294	19.22
583.638	19.21
583.981	19.15
584.324	19.11
584.667	19.09
585.01	19.02
585.353	18.98
585.696	18.91
586.039	18.91
586.382	18.86
586.725	18.84
587.067	18.78
587.41	18.78
587.753	18.77
588.095	18.76
588.438	18.73
588.781	18.69
589.123	18.66
589.465	18.63
589.808	18.61
590.15	18.59
590.492	18.54
590.835	18.48
591.177	18.44
591.519	18.39
591.861	18.37
592.203	18.32
592.545	18.29
592.887	18.26
593.229	18.19
593.571	18.16
593.913	18.08
594.254	18.06
594.596	18.04
594.938	17.96
595.279	17.89
595.621	17.85
595.963	17.84
596.304	17.84
596.645	17.78
596.987	17.74
597.328	17.67
597.669	17.63
598.011	17.63
598.352	17.59
598.693	17.51
599.034	17.5
599.375	17.47
599.716	17.42
600.057	17.39
600.398	17.37
600.739	17.35
601.08	17.33
601.42	17.31
601.761	17.27
602.102	17.23
602.442	17.19
602.783	17.19
603.123	17.13
603.464	17.09
603.804	17.02
604.145	16.99
604.485	16.97
604.825	16.94
605.166	16.9
605.506	16.86
605.846	16.85
606.186	16.84
606.526	16.8
606.866	16.79
607.206	16.74
607.546	16.68
607.886	16.68
608.225	16.6
608.565	16.55
608.905	16.52
609.245	16.49
609.584	16.47
609.924	16.45
610.263	16.4
610.603	16.36
610.942	16.32
611.281	16.27
611.621	16.21
611.96	16.18
612.299	16.15
612.638	16.13
612.978	16.11
613.317	16.05
613.656	16.02
613.995	15.96
614.334	15.92
614.672	15.88
615.011	15.84
615.35	15.8
615.689	15.79
616.027	15.79
616.366	15.74
616.705	15.67
617.043	15.6
617.382	15.57
617.72	15.54
618.059	15.53
618.397	15.49
618.735	15.47
619.073	15.42
619.412	15.41
619.75	15.4
620.088	15.31
620.426	15.22
620.764	15.22
621.102	15.18
621.44	15.17
621.778	15.16
622.115	15.1
622.453	15.06
622.791	15.01
623.129	14.94
623.466	14.89
623.804	14.87
624.141	14.83
624.479	14.77
624.816	14.76
625.153	14.76
625.491	14.7
625.828	14.7
626.165	14.61
626.502	14.55
626.84	14.5
627.177	14.47
627.514	14.42
627.851	14.35
628.188	14.25
628.524	14.2
628.861	14.17
629.198	14.14
629.535	14.12
629.871	14.07
630.208	14.04
630.545	14.02
630.881	13.94
631.218	13.9
631.554	13.83
631.89	13.81
632.227	13.78
632.563	13.74
632.899	13.64
633.235	13.6
633.572	13.51
633.908	13.45
634.244	13.38
634.58	13.31
634.916	13.25
635.251	13.26
635.587	13.22
635.923	13.15
636.259	13.07
636.595	13.04
636.93	12.99
637.266	13
637.601	12.95
637.937	12.95
638.272	12.95
638.608	12.89
638.943	12.8
639.278	12.76
639.613	12.73
639.949	12.7
640.284	12.66
640.619	12.66
640.954	12.6
641.289	12.56
641.624	12.5
641.959	12.45
642.294	12.39
642.628	12.33
642.963	12.29
643.298	12.21
643.632	12.18
643.967	12.14
644.302	11.99
644.636	11.92
644.971	11.83
645.305	11.71
645.639	11.67
645.974	11.6
646.308	11.55
646.642	11.5
646.976	11.46
647.31	11.39
647.644	11.35
647.978	11.33
648.312	11.26
648.646	11.28
648.98	11.34
649.314	11.29
649.647	11.29
649.981	11.22
650.315	11.14
650.648	11.07
650.982	11.06
651.315	11.03
651.649	11.01
651.982	10.98
652.316	10.91
652.649	10.86
652.982	10.84
653.315	10.79
653.648	10.85
653.982	10.9
654.315	10.89
654.648	10.86
654.981	10.81
655.313	10.82
655.646	10.83
655.979	10.8
656.312	10.72
656.644	10.68
656.977	10.69
657.31	10.59
657.642	10.52
657.975	10.49
658.307	10.41
658.64	10.42
658.972	10.39
659.304	10.31
659.636	10.28
659.969	10.24
660.301	10.21
660.633	10.19
660.965	10.16
661.297	10.1
661.629	10.06
661.961	10.07
662.292	10.01
662.624	9.94
662.956	9.96
663.288	9.91
663.619	9.84
663.951	9.81
664.282	9.72
664.614	9.67
664.945	9.68
665.276	9.66
665.608	9.6
665.939	9.6
666.27	9.54
666.601	9.45
666.933	9.43
667.264	9.48
667.595	9.44
667.926	9.46
668.256	9.41
668.587	9.32
668.918	9.35
669.249	9.32
669.58	9.23
669.91	9.23
670.241	9.28
670.571	9.28
670.902	9.29
671.232	9.22
671.563	9.18
671.893	9.19
672.223	9.25
672.554	9.21
672.884	9.28
673.214	9.24
673.544	9.24
673.874	9.16
674.204	9.1
674.534	8.97
674.864	9.04
675.194	8.97
675.524	8.98
675.853	8.92
676.183	8.82
676.513	8.73
676.842	8.81
677.172	8.78
677.501	8.81
677.831	8.81
678.16	8.86
678.489	8.85
678.819	8.85
679.148	8.8
679.477	8.76
679.806	8.78
680.135	8.76
680.464	8.67
680.793	8.62
681.122	8.51
681.451	8.44
681.78	8.43
682.108	8.39
682.437	8.4
682.766	8.37
683.094	8.35
683.423	8.27
683.751	8.19
684.08	8.14
684.408	8.1
684.737	8.11
685.065	8.12
685.393	8.12
685.721	8.1
686.049	8.12
686.377	8.15
686.705	8.16
687.033	8.19
687.361	8.22
687.689	8.28
688.017	8.38
688.345	8.39
688.673	8.47
689.0	8.41
689.328	8.39
689.655	8.38
689.983	8.45
690.31	8.48
690.638	8.4
690.965	8.38
691.292	8.29
691.62	8.21
691.947	8.21
692.274	8.07
692.601	7.98
692.928	7.91
693.255	7.75
693.582	7.57
693.909	7.42
694.236	7.52
694.562	7.54
694.889	7.58
695.216	7.56
695.542	7.56
695.869	7.61
696.196	7.71
696.522	7.71
696.848	7.68
697.175	7.66
697.501	7.71
697.827	7.66
698.154	7.69
698.48	7.59
698.806	7.56
699.132	7.46
699.458	7.45
699.784	7.35
700.11	7.31
700.435	7.36
700.761	7.32
701.087	7.26
701.413	7.26
701.738	7.2
702.064	7.23
702.389	7.17
702.715	7.2
703.04	7.29
703.366	7.42
703.691	7.54
704.016	7.55
704.341	7.6
704.666	7.65
704.992	7.63
705.317	7.6
705.642	7.62
705.967	7.56
706.291	7.65
706.616	7.51
706.941	7.41
707.266	7.26
707.59	7.26
707.915	7.31
708.24	7.35
708.564	7.38
708.889	7.37
709.213	7.42
709.537	7.51
709.862	7.42
710.186	7.39
710.51	7.44
710.834	7.52
711.158	7.53
711.482	7.48
711.806	7.45
712.13	7.39
712.454	7.37
712.778	7.36
713.102	7.33
713.426	7.29
713.749	7.26
714.073	7.19
714.396	7.07
714.72	7.04
715.043	7.01
715.367	6.92
715.69	6.91
716.013	6.81
716.337	6.65
716.66	6.63
716.983	6.63
717.306	6.6
717.629	6.4
717.952	6.39
718.275	6.31
718.598	6.3
718.921	6.36
719.243	6.38
719.566	6.55
719.889	6.68
720.211	6.59
720.534	6.56
720.856	6.54
721.179	6.77
721.501	6.86
721.823	6.83
722.146	6.89
722.468	6.97
722.79	6.88
723.112	6.65
723.434	6.6
723.756	6.74
724.078	6.77
724.4	6.67
724.722	6.69
725.044	6.5
725.366	6.38
725.687	6.3
726.009	6.19
726.33	6.19
726.652	6.44
726.973	6.43
727.295	6.4
727.616	6.38
727.938	6.65
728.259	6.81
728.58	6.89
728.901	7
729.222	7
729.543	7.05
729.864	7.1
730.185	6.94
730.506	6.83
730.827	6.85
731.148	6.81
731.468	6.73
731.789	6.51
732.11	6.48
732.43	6.39
732.751	6.4
733.071	6.23
733.392	6.17
733.712	6.18
734.032	6.32
734.352	6.34
734.673	6.32
734.993	6.14
735.313	6.1
735.633	6.32
735.953	6.47
736.273	6.52
736.593	6.72
736.912	6.79
737.232	6.78
737.552	6.61
737.871	6.49
738.191	6.6
738.51	6.88
738.83	7.09
739.149	6.95
739.469	7.11
739.788	7.03
740.107	6.8
740.426	6.82
740.746	6.85
741.065	6.92
741.384	6.92
741.703	6.86
742.022	6.54
742.341	6.5
742.659	6.43
742.978	6.09
743.297	6.2
743.615	6.19
743.934	6.1
744.253	6.01
744.571	6.07
744.89	6.23
745.208	6.09
745.526	6.39
745.845	6.11
746.163	5.93
746.481	6.17
746.799	6.06
747.117	6.29
747.435	6.43
747.753	6.72
748.071	6.64
748.389	6.6
748.706	6.71
749.024	6.52
749.342	6.67
749.659	6.9
749.977	6.77
750.295	7
750.612	6.96
750.929	6.92
751.247	6.91
751.564	7.06
751.881	7.06
752.198	7.31
752.516	7.37
752.833	7.28
753.15	7.13
753.467	7.03
753.783	6.7
754.1	6.83
754.417	6.71
754.734	6.56
755.05	6.47
755.367	6.19
755.684	6.18
756.0	6.05
756.317	6.15
756.633	6.13
756.949	6.42
757.266	6.62
757.582	6.45
757.898	6.3
758.214	6.29
758.53	6.15
758.846	6.32
759.162	6.02
759.478	5.96
759.794	6.15
760.11	6.19
760.426	5.83
760.741	5.75
761.057	5.7
761.372	5.64
761.688	5.75
762.003	5.83
762.319	5.79
762.634	5.87
762.949	5.98
763.265	5.74
763.58	5.79
763.895	5.8
764.21	5.82
764.525	5.76
764.84	5.84
765.155	5.78
765.47	5.92
765.785	5.81
766.099	5.89
766.414	5.76
766.729	5.42
767.043	5.42
767.358	5.48
767.672	5.29
767.987	5.22
768.301	5.34
768.615	5.38
768.929	5.14
769.244	5.52
769.558	5.65
769.872	5.83
770.186	6.53
770.5	6.63
770.814	6.55
771.127	6.83
771.441	7.01
771.755	7.25
772.069	6.77
772.382	6.67
772.696	6.28
773.009	5.85
773.323	5.93
773.636	5.54
773.95	5.62
774.263	5.97
774.576	5.53
774.889	5.79
775.202	5.47
775.515	6.21
775.828	5.99
776.141	6.41
776.454	6.59
776.767	6.53
777.08	6.55
777.393	5.98
777.705	5.61
778.018	5.89
778.33	5.8
778.643	6.04
778.955	5.61
779.268	6.33
779.58	6.17
779.892	6.3
780.205	6.33
780.517	6.37
780.829	7.23
781.141	7.68
781.453	7.46
781.765	7.41
782.077	6.98
782.388	7.16
782.7	6.34
783.012	6.46
783.324	6.23
783.635	6.24
783.947	6.11
784.258	4.92
784.57	4.6
784.881	4.85
785.192	3.88
785.504	3.94
785.815	3.85
786.126	4.33
786.437	4.45
786.748	4.24
787.059	4.08
787.37	4.11
787.681	5.11
787.992	5.21
788.302	5.51
788.613	6.34
788.924	6.77
789.234	7.26
789.545	7.61
789.855	7.42
790.166	7.41
790.476	7.44
790.786	7.41
791.096	7.08
791.407	7.24
791.717	6.74
792.027	6.72
792.337	6.47
792.647	6.12
792.957	6.13
793.266	6.18
793.576	6.49
793.886	6.29
794.196	6.52
794.505	8.95
794.815	8.59
795.124	8.89
795.434	9.18
795.743	8.82
796.052	8.6
796.362	7.98
796.671	7.83
796.98	7.94
797.289	8.03
797.598	7.49
797.907	5.27
798.216	5.62
798.525	5.78
798.834	5.69
799.142	5.86
799.451	6.15
799.76	6.49
800.068	6.66
800.377	7.07
800.685	7.78
800.994	8.21
801.302	7.76
801.61	7.59
801.918	7.13
802.227	6.89
802.535	7.13
802.843	6.84
803.151	6.76
803.459	6.62
803.767	6.34
804.074	5.58
804.382	5.82
804.69	7.86
804.998	8.03
805.305	8.72
805.613	9.32
805.92	9.68
806.228	10.13
806.535	9.34
806.842	9.01
807.15	8.62
807.457	8.81
807.764	8.19
808.071	6.63
808.378	6.61
808.685	6.38
808.992	5.52
809.299	5.35
809.605	4.99
809.912	5.91
810.219	6.19
810.525	6.07
810.832	5.55
811.138	6.1
811.445	6.57
811.751	6.1
812.058	5.38
812.364	5.6
812.67	4.9
812.976	4.62
813.282	4.16
813.588	3.97
813.894	4.5
814.2	4.65
814.506	4.66
814.812	3.93
815.118	4.66
815.423	5.41
815.729	5.88
816.035	5.55
816.34	5.92
816.646	6.39
816.951	6.62
817.256	6.67
817.562	7.29
817.867	6.85
818.172	6.83
818.477	6.21
818.782	5.78
819.087	5.73
819.392	6.35
819.697	6.09
820.002	5.53
820.306	5.45
820.611	5.43
820.916	5.14
821.22	5.49
821.525	5.29
821.829	6.01
822.134	6.22
822.438	6.1
822.742	6.35
823.047	6.59
823.351	6.62
823.655	6.75
823.959	6.61
824.263	6.56
824.567	6.61
824.871	6.85
825.174	6.79
825.478	7.67
825.782	7.72
826.086	7.71
826.389	7.59
826.693	7.67
826.996	7.55
827.3	7.61
827.603	7.75
827.906	7.73
828.209	7.87
828.513	7.98
828.816	6.76
829.119	6.83
829.422	6.72
829.725	6.78
830.028	6.7
830.33	6.48
830.633	6.51
830.936	6.44
831.238	6.52
831.541	6
831.844	5.69
832.146	5.81
832.448	5.75
832.751	5.4
833.053	5.41
833.355	5.84
833.657	5.66
833.96	5.87
834.262	5.83
834.564	5.86
834.865	5.73
835.167	6.39
835.469	6.45
835.771	5.89
836.073	6.24
836.374	6.41
836.676	5.99
836.977	6.55
837.279	6.42
837.58	6.66
837.882	6.6
838.183	7.55
838.484	6.45
838.785	6.35
839.086	7.54
839.387	7.68
839.688	7.83
839.989	8.93
840.29	8.93
840.591	9.18
840.892	9.09
841.192	9.66
841.493	9.16
841.794	9.75
842.094	10.27
842.394	9.57
842.695	1.68
842.995	1.68
843.295	1.68
843.596	1.68
843.896	1.68
844.196	1.68
844.496	1.68
844.796	1.68
845.096	1.68
845.396	1.68
845.695	1.68
845.995	4.44
846.295	7.19
846.594	8.33
846.894	7.71
847.194	7.7
847.493	9.82
847.792	10.72
848.092	10.46
848.391	8.89
848.69	11.4
848.989	10.45
849.288	8.53
849.587	7.54
849.886	7.39
850.185	7.2
850.484	8.43
850.783	8.29
851.081	8.96
851.38	11.46
851.679	12.4
851.977	13.6
852.276	14.72
852.574	17.11
852.872	18.1
853.171	17.29
853.469	16.02
853.767	14.49
854.065	13.85
854.363	11.12
854.661	10.55
854.959	11.31
855.257	7.83
855.555	6.56
855.853	6.15
856.15	6.4
856.448	8.38
856.746	11.89
857.043	12.85
857.341	16.4
857.638	21.24
857.935	19.75
858.233	18.2
858.53	20.25
858.827	20.06
859.124	18.4
859.421	17.41
859.718	18.97
860.015	17.78
860.312	17.53
860.609	12.91
860.905	11.03
861.202	11.17
861.499	12.65
861.795	13.06
862.092	11.73
862.388	10.37
862.684	10.22
862.981	7.93
863.277	5.24
863.573	5.64
863.869	6.78
864.165	5.03
864.461	4.66
864.757	3.55
865.053	0.85
865.349	3.16
865.645	2.73
865.94	2.97
866.236	2.96
866.532	2.92
866.827	2.23
867.123	3.63
867.418	4.97
867.713	5.9
868.009	4.56
868.304	5.73
868.599	5.92
868.894	6.61
869.189	7.64
869.484	9.57
869.779	11.2
870.074	11.62
870.369	11.22
870.663	11.76
870.958	9.1
871.252	7.64
871.547	8.34
871.842	8.54
872.136	7.18
872.43	4.98
872.725	1.61
873.019	2.24
873.313	2.73
873.607	0.24
873.901	0.24
874.195	0.24
874.489	2.83
874.783	2.98
875.077	1.64
875.37	4.94
875.664	5.36
875.958	8.1
876.251	8.58
876.545	8.57
876.838	11.17
877.132	15.66
877.425	14.94
877.718	13.32
878.011	13.63
878.305	15.52
878.598	13.65
878.891	13.58
879.184	12.89
879.476	12.67
879.769	10.37
880.062	9.02
880.355	6.26
880.647	7.09
880.94	5.38
881.232	2.24
881.525	0.31
881.817	0.31
882.11	1.24
882.402	0.67
882.694	0.67
882.986	0.51
883.278	1.54
883.57	3.14
883.862	3.55
884.154	5.53
884.446	6.39
884.738	7.1
885.03	7.9
885.321	8.25
885.613	8.5
885.904	8.83
886.196	8.87
886.487	9.04
886.779	8.33
887.07	7.94
887.361	7.19
887.652	7.9
887.943	7.48
888.234	7.29
888.525	6.69
888.816	6.69
889.107	7.78
889.398	8.02
889.689	7.95
889.979	8.17
890.27	9.92
890.56	10.89
890.851	10
891.141	11.2
891.432	11.5
891.722	13.26
