Data from thigh1_Reflection__1__15-16-47-219.txt Node

Date: Thu Aug 04 15:16:47 AEST 2022
User: kathy
Spectrometer: JAZA2503
Trigger mode: 0
Integration Time (sec): 2.439700E-1
Scans to average: 10
Electric dark correction enabled: true
Nonlinearity correction enabled: true
Boxcar width: 5
XAxis mode: Wavelengths
Number of Pixels in Spectrum: 2048
>>>>>Begin Spectral Data<<<<<
189.467	70.97
189.852	71.61
190.237	26.44
190.622	-17.12
191.007	16.78
191.392	25.09
191.777	13.17
192.162	-36.98
192.546	-67.93
192.931	-307.86
193.316	162.56
193.701	141.02
194.086	113.41
194.47	100.47
194.855	-1743.43
195.24	-394.41
195.624	220.37
196.009	61.76
196.393	-5.31
196.778	-79.91
197.163	76.65
197.547	56.73
197.931	37.53
198.316	12.38
198.7	12.34
199.085	14.35
199.469	17.46
199.853	14.29
200.237	17.7
200.622	15.85
201.006	24.35
201.39	22.92
201.774	16.12
202.158	25.71
202.542	29.02
202.926	22.83
203.31	25.24
203.694	16.45
204.078	17.18
204.462	21.45
204.846	24.11
205.23	17.51
205.614	9.91
205.998	18.92
206.381	21.79
206.765	29.09
207.149	24.79
207.532	27.76
207.916	30.34
208.3	30.52
208.683	28.86
209.067	33.12
209.45	33.01
209.834	39.1
210.217	36.93
210.601	30.08
210.984	31.93
211.367	39.83
211.751	32.55
212.134	29.84
212.517	34.43
212.901	30.74
213.284	27.46
213.667	27.1
214.05	26.25
214.433	24.78
214.816	24.93
215.199	21.26
215.582	15.42
215.965	9.78
216.348	13.52
216.731	5.67
217.114	0.49
217.497	-5.36
217.88	-5.61
218.262	-10.47
218.645	-11.23
219.028	-7.49
219.411	-9.91
219.793	-1.5
220.176	0.38
220.559	-2.41
220.941	-1.45
221.324	8.87
221.706	14.5
222.089	16.08
222.471	18.28
222.853	16.85
223.236	14.36
223.618	13.03
224	9.93
224.383	10.17
224.765	9.37
225.147	8.76
225.529	5.88
225.912	3.12
226.294	1.57
226.676	1.05
227.058	0.02
227.44	0.15
227.822	1.1
228.204	2.06
228.586	2.19
228.968	2.76
229.349	2.92
229.731	2.8
230.113	2.45
230.495	2.38
230.877	2.31
231.258	2.83
231.64	2.79
232.022	2.82
232.403	2.75
232.785	2.96
233.166	2.63
233.548	2.69
233.929	2.82
234.311	3.79
234.692	4.11
235.073	3.86
235.455	3.87
235.836	4.74
236.217	4.61
236.599	4.65
236.98	4.64
237.361	4.85
237.742	4.79
238.123	4.33
238.504	3.84
238.885	3.51
239.266	3.46
239.647	3.12
240.028	2.36
240.409	2.15
240.79	2
241.171	1.82
241.552	1.82
241.933	1.66
242.313	1.99
242.694	1.97
243.075	2.09
243.456	2.01
243.836	2.08
244.217	2.38
244.597	2.5
244.978	2.35
245.358	2.58
245.739	2.42
246.119	2.5
246.5	2.29
246.88	2.19
247.26	2.03
247.641	2
248.021	2.01
248.401	1.85
248.781	1.79
249.162	2
249.542	1.85
249.922	1.84
250.302	1.86
250.682	1.89
251.062	2.03
251.442	2.08
251.822	2.06
252.202	2.12
252.582	2.26
252.961	2.33
253.341	2.33
253.721	2.39
254.101	2.51
254.48	2.49
254.86	2.6
255.24	2.82
255.619	2.9
255.999	3.08
256.378	2.86
256.758	2.81
257.137	2.57
257.517	2.14
257.896	1.88
258.276	1.7
258.655	1.43
259.034	1.22
259.414	1
259.793	0.96
260.172	0.92
260.551	0.91
260.93	0.82
261.309	0.82
261.688	0.81
262.068	0.89
262.447	0.94
262.825	0.99
263.204	0.88
263.583	0.88
263.962	0.81
264.341	0.77
264.72	0.8
265.099	0.8
265.477	0.91
265.856	1.06
266.235	1.03
266.613	0.91
266.992	0.89
267.371	1.15
267.749	1.2
268.128	1.24
268.506	1.26
268.884	1.31
269.263	1.28
269.641	1.18
270.02	1.09
270.398	0.98
270.776	1.09
271.154	1.16
271.533	1.15
271.911	1.08
272.289	1.09
272.667	1.12
273.045	1.11
273.423	1.14
273.801	1.16
274.179	1.18
274.557	1.28
274.935	1.25
275.313	1.28
275.69	1.25
276.068	1.3
276.446	1.34
276.824	1.22
277.201	1.18
277.579	1.19
277.957	1.15
278.334	1.09
278.712	1.04
279.089	1.01
279.467	0.9
279.844	0.94
280.222	0.83
280.599	0.76
280.976	0.86
281.354	0.81
281.731	0.8
282.108	0.85
282.485	0.95
282.863	0.96
283.24	0.99
283.617	1.07
283.994	1.03
284.371	1.08
284.748	1.19
285.125	1.13
285.502	1.16
285.879	1.16
286.256	1.13
286.633	1.17
287.009	1.23
287.386	1.25
287.763	1.25
288.139	1.31
288.516	1.38
288.893	1.37
289.269	1.46
289.646	1.51
290.022	1.53
290.399	1.59
290.775	1.56
291.152	1.61
291.528	1.63
291.904	1.64
292.281	1.65
292.657	1.67
293.033	1.73
293.41	1.78
293.786	1.82
294.162	1.87
294.538	1.9
294.914	2
295.29	2.05
295.666	2.13
296.042	2.22
296.418	2.31
296.794	2.35
297.17	2.43
297.546	2.47
297.921	2.56
298.297	2.65
298.673	2.71
299.048	2.77
299.424	2.83
299.8	2.91
300.175	2.96
300.551	3.04
300.926	3.14
301.302	3.18
301.677	3.24
302.053	3.32
302.428	3.39
302.803	3.49
303.179	3.57
303.554	3.64
303.929	3.7
304.304	3.82
304.68	3.89
305.055	3.98
305.43	4.05
305.805	4.14
306.18	4.21
306.555	4.3
306.93	4.37
307.305	4.44
307.679	4.47
308.054	4.48
308.429	4.45
308.804	4.44
309.179	4.46
309.553	4.44
309.928	4.44
310.303	4.45
310.677	4.45
311.052	4.43
311.426	4.42
311.801	4.49
312.175	4.53
312.55	4.62
312.924	4.68
313.298	4.73
313.673	4.8
314.047	4.83
314.421	4.85
314.795	4.89
315.17	4.96
315.544	4.99
315.918	4.99
316.292	5.05
316.666	5.06
317.04	5.13
317.414	5.17
317.788	5.28
318.162	5.4
318.535	5.52
318.909	5.59
319.283	5.72
319.657	5.82
320.03	5.97
320.404	6.11
320.778	6.39
321.151	6.61
321.525	6.9
321.898	7.24
322.272	7.54
322.645	7.88
323.019	8.26
323.392	8.74
323.765	9.25
324.139	9.77
324.512	10.35
324.885	10.97
325.258	11.49
325.632	11.9
326.005	12.28
326.378	12.58
326.751	12.81
327.124	12.94
327.497	12.89
327.87	12.99
328.243	13.03
328.616	13.09
328.988	13.1
329.361	13.12
329.734	13.15
330.107	13.11
330.479	13.01
330.852	12.9
331.225	12.83
331.597	12.7
331.97	12.48
332.342	12.28
332.715	12.13
333.087	11.96
333.46	11.8
333.832	11.7
334.204	11.69
334.577	11.65
334.949	11.56
335.321	11.55
335.693	11.39
336.065	11.26
336.438	11.09
336.81	10.99
337.182	10.84
337.554	10.71
337.926	10.63
338.298	10.49
338.669	10.37
339.041	10.25
339.413	10.15
339.785	10.06
340.157	9.97
340.528	9.93
340.9	9.87
341.272	9.81
341.643	9.78
342.015	9.83
342.386	9.86
342.758	9.92
343.129	10.02
343.501	10.1
343.872	10.1
344.243	10.09
344.615	10.02
344.986	9.97
345.357	9.93
345.728	9.88
346.099	9.86
346.471	9.83
346.842	9.85
347.213	9.83
347.584	9.85
347.955	9.81
348.326	9.77
348.697	9.68
349.067	9.61
349.438	9.57
349.809	9.6
350.18	9.68
350.55	9.7
350.921	9.76
351.292	9.84
351.662	9.86
352.033	9.88
352.403	9.92
352.774	9.92
353.144	9.94
353.515	9.97
353.885	9.97
354.255	9.94
354.626	9.92
354.996	9.88
355.366	9.86
355.736	9.86
356.107	9.84
356.477	9.81
356.847	9.8
357.217	9.79
357.587	9.78
357.957	9.78
358.327	9.81
358.697	9.83
359.066	9.87
359.436	9.9
359.806	9.91
360.176	9.94
360.546	9.99
360.915	10.03
361.285	10.04
361.654	10.05
362.024	10.06
362.393	10.05
362.763	10.06
363.132	10.04
363.502	10.01
363.871	10.02
364.24	10.05
364.61	10.04
364.979	10.02
365.348	10.02
365.717	10.06
366.087	10.09
366.456	10.1
366.825	10.13
367.194	10.16
367.563	10.23
367.932	10.26
368.301	10.28
368.669	10.33
369.038	10.37
369.407	10.42
369.776	10.43
370.145	10.44
370.513	10.51
370.882	10.54
371.25	10.59
371.619	10.59
371.988	10.61
372.356	10.65
372.724	10.66
373.093	10.7
373.461	10.75
373.83	10.78
374.198	10.82
374.566	10.83
374.934	10.87
375.303	10.91
375.671	10.96
376.039	11.03
376.407	11.07
376.775	11.13
377.143	11.19
377.511	11.23
377.879	11.31
378.247	11.4
378.615	11.48
378.982	11.56
379.35	11.6
379.718	11.66
380.086	11.71
380.453	11.75
380.821	11.8
381.188	11.82
381.556	11.88
381.923	11.91
382.291	11.93
382.658	11.97
383.026	12.02
383.393	12.08
383.76	12.15
384.128	12.2
384.495	12.27
384.862	12.33
385.229	12.39
385.596	12.41
385.963	12.43
386.33	12.47
386.697	12.49
387.064	12.49
387.431	12.52
387.798	12.52
388.165	12.56
388.532	12.58
388.899	12.63
389.265	12.66
389.632	12.71
389.999	12.75
390.365	12.78
390.732	12.82
391.098	12.87
391.465	12.9
391.831	12.92
392.198	12.93
392.564	12.94
392.93	12.94
393.297	12.96
393.663	13
394.029	13.02
394.395	13.05
394.762	13.06
395.128	13.09
395.494	13.13
395.86	13.18
396.226	13.21
396.592	13.24
396.958	13.29
397.323	13.31
397.689	13.36
398.055	13.4
398.421	13.44
398.787	13.49
399.152	13.51
399.518	13.53
399.883	13.54
400.249	13.58
400.615	13.62
400.98	13.63
401.345	13.65
401.711	13.66
402.076	13.65
402.442	13.66
402.807	13.66
403.172	13.7
403.537	13.7
403.902	13.72
404.268	13.72
404.633	13.73
404.998	13.72
405.363	13.74
405.728	13.74
406.093	13.77
406.457	13.79
406.822	13.84
407.187	13.87
407.552	13.91
407.917	13.94
408.281	13.94
408.646	13.96
409.011	14
409.375	14.02
409.74	14.03
410.104	14.04
410.469	14.04
410.833	14.05
411.197	14.06
411.562	14.06
411.926	14.09
412.29	14.12
412.655	14.14
413.019	14.16
413.383	14.21
413.747	14.23
414.111	14.27
414.475	14.32
414.839	14.35
415.203	14.4
415.567	14.45
415.931	14.47
416.295	14.52
416.658	14.55
417.022	14.57
417.386	14.58
417.749	14.59
418.113	14.6
418.477	14.61
418.84	14.62
419.204	14.61
419.567	14.62
419.931	14.64
420.294	14.66
420.657	14.69
421.021	14.73
421.384	14.75
421.747	14.79
422.11	14.83
422.473	14.83
422.836	14.87
423.199	14.9
423.562	14.93
423.925	14.97
424.288	14.98
424.651	14.98
425.014	15
425.377	15.05
425.74	15.05
426.102	15.08
426.465	15.15
426.828	15.19
427.19	15.23
427.553	15.28
427.916	15.27
428.278	15.3
428.641	15.32
429.003	15.33
429.365	15.31
429.728	15.36
430.09	15.37
430.452	15.35
430.814	15.34
431.177	15.35
431.539	15.34
431.901	15.38
432.263	15.42
432.625	15.47
432.987	15.52
433.349	15.59
433.711	15.61
434.072	15.69
434.434	15.77
434.796	15.85
435.158	15.94
435.519	16.01
435.881	16.06
436.243	16.1
436.604	16.16
436.966	16.21
437.327	16.23
437.689	16.3
438.05	16.29
438.411	16.32
438.773	16.36
439.134	16.39
439.495	16.42
439.856	16.48
440.218	16.56
440.579	16.59
440.94	16.62
441.301	16.71
441.662	16.78
442.023	16.86
442.384	16.93
442.745	16.95
443.105	17
443.466	17.07
443.827	17.12
444.188	17.16
444.548	17.22
444.909	17.3
445.269	17.35
445.63	17.36
445.99	17.42
446.351	17.45
446.711	17.53
447.072	17.56
447.432	17.6
447.792	17.61
448.153	17.64
448.513	17.68
448.873	17.72
449.233	17.74
449.593	17.82
449.953	17.84
450.313	17.89
450.673	17.92
451.033	17.98
451.393	18.02
451.753	18.09
452.113	18.56
452.472	18.58
452.832	18.58
453.192	18.59
453.551	18.58
453.911	18.57
454.271	18.55
454.63	18.55
454.989	18.56
455.349	18.57
455.708	18.57
456.068	18.37
456.427	18.4
456.786	18.44
457.145	18.5
457.505	18.56
457.864	18.65
458.223	18.75
458.582	18.85
458.941	18.94
459.3	19.03
459.659	19.08
460.018	19.14
460.376	19.22
460.735	19.27
461.094	19.32
461.453	19.36
461.811	19.39
462.17	19.42
462.529	19.43
462.887	19.46
463.246	19.47
463.604	19.51
463.963	19.56
464.321	19.46
464.679	19.46
465.038	19.48
465.396	19.51
465.754	19.57
466.112	19.62
466.47	19.69
466.828	19.73
467.186	19.8
467.544	19.87
467.902	19.9
468.26	20.1
468.618	20.18
468.976	20.25
469.334	20.27
469.692	20.28
470.049	20.3
470.407	20.32
470.765	20.34
471.122	20.37
471.48	20.43
471.837	20.49
472.195	20.56
472.552	20.62
472.909	20.67
473.267	20.72
473.624	20.79
473.981	20.86
474.338	20.91
474.696	20.94
475.053	20.98
475.41	21.02
475.767	21.08
476.124	21.1
476.481	21.13
476.838	21.16
477.194	21.21
477.551	21.25
477.908	21.25
478.265	21.28
478.621	21.36
478.978	21.4
479.335	21.45
479.691	21.5
480.048	21.55
480.404	21.63
480.761	21.71
481.117	21.75
481.473	21.78
481.83	21.82
482.186	21.87
482.542	21.87
482.898	21.91
483.255	21.93
483.611	21.94
483.967	21.96
484.323	21.99
484.679	22.01
485.035	22.04
485.39	22.09
485.746	22.15
486.102	22.18
486.458	22.24
486.814	22.25
487.169	22.31
487.525	22.35
487.88	22.39
488.236	22.42
488.591	22.44
488.947	22.45
489.302	22.47
489.658	22.47
490.013	22.47
490.368	22.46
490.723	22.47
491.079	22.46
491.434	22.47
491.789	22.48
492.144	22.48
492.499	22.5
492.854	22.53
493.209	22.55
493.564	22.58
493.919	22.63
494.273	22.66
494.628	22.71
494.983	22.73
495.338	22.74
495.692	22.75
496.047	22.75
496.401	22.74
496.756	22.72
497.11	22.7
497.465	22.69
497.819	22.64
498.173	22.65
498.528	22.63
498.882	22.62
499.236	22.61
499.59	22.6
499.944	22.62
500.298	22.61
500.652	22.61
501.006	22.62
501.36	22.61
501.714	22.62
502.068	22.62
502.422	22.63
502.776	22.64
503.129	22.68
503.483	22.72
503.837	22.75
504.19	22.81
504.544	22.85
504.897	22.85
505.251	22.86
505.604	22.86
505.958	22.85
506.311	22.82
506.664	22.79
507.017	22.73
507.371	22.68
507.724	22.6
508.077	22.55
508.43	22.5
508.783	22.48
509.136	22.47
509.489	22.43
509.842	22.42
510.195	22.41
510.547	22.38
510.9	22.37
511.253	22.31
511.606	22.29
511.958	22.22
512.311	22.17
512.663	22.09
513.016	22
513.368	21.95
513.721	21.89
514.073	21.84
514.425	21.81
514.778	21.77
515.13	21.75
515.482	21.71
515.834	21.69
516.186	21.68
516.538	21.69
516.89	21.71
517.242	21.73
517.594	21.75
517.946	21.75
518.298	21.72
518.65	21.69
519.001	21.68
519.353	21.66
519.705	21.61
520.056	21.57
520.408	21.52
520.759	21.46
521.111	21.41
521.462	21.33
521.814	21.28
522.165	21.26
522.516	21.23
522.868	21.2
523.219	21.15
523.57	21.11
523.921	21.04
524.272	20.96
524.623	20.89
524.974	20.82
525.325	20.77
525.676	20.68
526.027	20.63
526.378	20.57
526.728	20.47
527.079	20.43
527.43	20.38
527.78	20.36
528.131	20.31
528.481	20.28
528.832	20.21
529.182	20.16
529.533	20.13
529.883	20.08
530.233	20.02
530.584	19.98
530.934	19.9
531.284	19.84
531.634	19.74
531.984	19.69
532.334	19.59
532.684	19.52
533.034	19.46
533.384	19.38
533.734	19.32
534.084	19.25
534.434	19.16
534.783	19.1
535.133	19.02
535.483	18.99
535.832	18.95
536.182	18.92
536.531	18.86
536.881	18.8
537.23	18.74
537.58	18.66
537.929	18.62
538.278	19.61
538.628	19.55
538.977	19.49
539.326	19.42
539.675	19.33
540.024	19.27
540.373	19.2
540.722	19.13
541.071	19.11
541.42	19.06
541.769	18.98
542.117	17.92
542.466	17.85
542.815	17.8
543.163	17.74
543.512	17.69
543.861	17.61
544.209	17.57
544.558	17.49
544.906	17.41
545.254	17.33
545.603	17.27
545.951	17.21
546.299	17.18
546.647	17.16
546.996	17.11
547.344	17.02
547.692	16.99
548.04	16.95
548.388	16.91
548.736	16.83
549.083	16.78
549.431	16.74
549.779	16.65
550.127	16.55
550.475	16.44
550.822	16.34
551.17	16.28
551.517	16.21
551.865	16.1
552.212	16.02
552.56	15.97
552.907	15.94
553.254	15.86
553.602	15.82
553.949	15.76
554.296	15.69
554.643	15.63
554.99	15.56
555.337	15.48
555.684	15.45
556.031	15.36
556.378	15.27
556.725	15.17
557.072	15.09
557.419	15.02
557.765	14.92
558.112	14.85
558.459	14.78
558.805	14.71
559.152	14.64
559.498	14.54
559.845	14.49
560.191	14.45
560.538	14.41
560.884	14.38
561.23	14.31
561.576	14.26
561.923	14.19
562.269	14.14
562.615	14.08
562.961	14
563.307	13.96
563.653	13.92
563.999	13.85
564.344	13.78
564.69	13.71
565.036	13.66
565.382	13.63
565.727	13.6
566.073	13.56
566.419	13.5
566.764	13.49
567.11	13.43
567.455	13.36
567.8	13.34
568.146	13.27
568.491	13.22
568.836	13.14
569.181	13.04
569.527	12.95
569.872	12.88
570.217	12.82
570.562	12.75
570.907	12.71
571.252	12.67
571.597	12.56
571.941	12.49
572.286	12.41
572.631	12.38
572.976	12.37
573.32	12.37
573.665	12.36
574.009	12.37
574.354	12.37
574.698	12.34
575.043	12.32
575.387	12.29
575.731	12.27
576.076	12.24
576.42	12.22
576.764	12.17
577.108	12.14
577.452	12.11
577.796	12.08
578.14	12.04
578.484	12.04
578.828	12.03
579.172	12.03
579.516	12.02
579.86	11.98
580.203	11.95
580.547	11.95
580.891	11.92
581.234	11.85
581.578	11.75
581.921	11.75
582.264	11.69
582.608	11.67
582.951	11.67
583.294	11.67
583.638	11.64
583.981	11.62
584.324	11.59
584.667	11.58
585.01	11.57
585.353	11.52
585.696	11.5
586.039	11.47
586.382	11.45
586.725	11.43
587.067	11.4
587.41	11.38
587.753	11.36
588.095	11.35
588.438	11.34
588.781	11.31
589.123	11.29
589.465	11.27
589.808	11.25
590.15	11.24
590.492	11.23
590.835	11.19
591.177	11.18
591.519	11.15
591.861	11.12
592.203	11.1
592.545	11.09
592.887	11.09
593.229	11.09
593.571	11.09
593.913	11.07
594.254	11.01
594.596	11.01
594.938	11.01
595.279	10.98
595.621	10.94
595.963	10.92
596.304	10.92
596.645	10.91
596.987	10.9
597.328	10.9
597.669	10.9
598.011	10.87
598.352	10.83
598.693	10.8
599.034	10.77
599.375	10.76
599.716	10.75
600.057	10.75
600.398	10.74
600.739	10.69
601.08	10.69
601.42	10.69
601.761	10.7
602.102	10.69
602.442	10.69
602.783	10.64
603.123	10.62
603.464	10.58
603.804	10.56
604.145	10.54
604.485	10.51
604.825	10.44
605.166	10.42
605.506	10.42
605.846	10.42
606.186	10.4
606.526	10.39
606.866	10.34
607.206	10.33
607.546	10.24
607.886	10.23
608.225	10.22
608.565	10.17
608.905	10.19
609.245	10.05
609.584	10.02
609.924	9.99
610.263	10
610.603	10.01
610.942	10
611.281	9.99
611.621	9.98
611.96	9.97
612.299	10
612.638	10.01
612.978	10.01
613.317	10
613.656	9.99
613.995	9.98
614.334	9.97
614.672	9.97
615.011	9.93
615.35	9.91
615.689	9.9
616.027	9.9
616.366	9.93
616.705	9.94
617.043	9.89
617.382	9.85
617.72	9.82
618.059	9.77
618.397	9.76
618.735	9.75
619.073	9.7
619.412	9.69
619.75	9.67
620.088	9.63
620.426	9.59
620.764	9.56
621.102	9.54
621.44	9.52
621.778	9.51
622.115	9.48
622.453	9.49
622.791	9.49
623.129	9.46
623.466	9.41
623.804	9.34
624.141	9.35
624.479	9.33
624.816	9.3
625.153	9.3
625.491	9.3
625.828	9.25
626.165	9.23
626.502	9.22
626.84	9.2
627.177	9.17
627.514	9.13
627.851	9.08
628.188	9.02
628.524	8.93
628.861	8.93
629.198	8.89
629.535	8.87
629.871	8.79
630.208	8.78
630.545	8.75
630.881	8.76
631.218	8.7
631.554	8.73
631.89	8.74
632.227	8.82
632.563	8.82
632.899	8.81
633.235	8.79
633.572	8.8
633.908	8.81
634.244	8.81
634.58	8.75
634.916	8.78
635.251	8.79
635.587	8.75
635.923	8.73
636.259	8.68
636.595	8.68
636.93	8.69
637.266	8.68
637.601	8.6
637.937	8.52
638.272	8.48
638.608	8.46
638.943	8.4
639.278	8.34
639.613	8.25
639.949	8.22
640.284	8.17
640.619	8.16
640.954	8.11
641.289	8.14
641.624	8.14
641.959	8.17
642.294	8.12
642.628	8.07
642.963	8.13
643.298	8.12
643.632	8.18
643.967	8.15
644.302	8.08
644.636	8.11
644.971	8.03
645.305	8.11
645.639	8.04
645.974	8.02
646.308	8
646.642	7.95
646.976	7.96
647.31	7.88
647.644	7.89
647.978	7.88
648.312	7.82
648.646	7.85
648.98	7.75
649.314	7.69
649.647	7.64
649.981	7.59
650.315	7.51
650.648	7.47
650.982	7.48
651.315	7.43
651.649	7.4
651.982	7.43
652.316	7.45
652.649	7.42
652.982	7.44
653.315	7.46
653.648	7.52
653.982	7.58
654.315	7.54
654.648	7.48
654.981	7.48
655.313	7.47
655.646	7.42
655.979	7.38
656.312	7.42
656.644	7.39
656.977	7.31
657.31	7.19
657.642	7.07
657.975	7.08
658.307	7.04
658.64	7.02
658.972	7.02
659.304	7
659.636	6.94
659.969	6.86
660.301	6.84
660.633	6.89
660.965	6.9
661.297	6.98
661.629	6.95
661.961	6.96
662.292	6.95
662.624	6.95
662.956	6.94
663.288	7
663.619	7.09
663.951	7.04
664.282	7.01
664.614	7.04
664.945	6.99
665.276	6.99
665.608	6.95
665.939	6.95
666.27	6.95
666.601	6.92
666.933	6.83
667.264	6.75
667.595	6.74
667.926	6.67
668.256	6.57
668.587	6.53
668.918	6.52
669.249	6.55
669.58	6.55
669.91	6.52
670.241	6.49
670.571	6.59
670.902	6.55
671.232	6.58
671.563	6.63
671.893	6.65
672.223	6.6
672.554	6.59
672.884	6.57
673.214	6.62
673.544	6.66
673.874	6.7
674.204	6.67
674.534	6.73
674.864	6.72
675.194	6.77
675.524	6.78
675.853	6.88
676.183	6.81
676.513	6.83
676.842	6.7
677.172	6.58
677.501	6.55
677.831	6.46
678.16	6.39
678.489	6.31
678.819	6.3
679.148	6.35
679.477	6.29
679.806	6.28
680.135	6.17
680.464	6.22
680.793	6.21
681.122	6.13
681.451	6.17
681.78	6.16
682.108	6.25
682.437	6.16
682.766	6.09
683.094	6
683.423	6.06
683.751	6.12
684.08	6.09
684.408	6.07
684.737	6.15
685.065	6.04
685.393	6.17
685.721	6.03
686.049	6.09
686.377	6.07
686.705	6.12
687.033	6.1
687.361	6.07
687.689	6.03
688.017	6.11
688.345	6.08
688.673	6.14
689.0	5.94
689.328	6.07
689.655	6.1
689.983	6.11
690.31	6.17
690.638	6.25
690.965	6.21
691.292	6.27
691.62	6.26
691.947	6.21
692.274	6.16
692.601	6.23
692.928	6.13
693.255	5.96
693.582	5.98
693.909	5.93
694.236	5.83
694.562	5.84
694.889	5.87
695.216	5.87
695.542	5.92
695.869	5.87
696.196	5.91
696.522	5.94
696.848	6.04
697.175	5.96
697.501	5.96
697.827	5.93
698.154	5.92
698.48	5.87
698.806	5.77
699.132	5.73
699.458	5.82
699.784	5.79
700.11	5.74
700.435	5.78
700.761	5.78
701.087	5.73
701.413	5.69
701.738	5.73
702.064	5.65
702.389	5.71
702.715	5.75
703.04	5.7
703.366	5.67
703.691	5.69
704.016	5.62
704.341	5.66
704.666	5.75
704.992	5.87
705.317	5.95
705.642	6.04
705.967	6.11
706.291	5.99
706.616	5.92
706.941	5.96
707.266	6.04
707.59	6.05
707.915	6.08
708.24	5.93
708.564	5.78
708.889	5.55
709.213	5.42
709.537	5.22
709.862	5.18
710.186	5.14
710.51	4.94
710.834	4.85
711.158	4.89
711.482	4.76
711.806	4.78
712.13	4.85
712.454	4.92
712.778	5.11
713.102	5.24
713.426	5.33
713.749	5.39
714.073	5.59
714.396	5.56
714.72	5.6
715.043	5.6
715.367	5.73
715.69	5.72
716.013	5.73
716.337	5.59
716.66	5.67
716.983	5.8
717.306	5.96
717.629	5.81
717.952	5.69
718.275	5.6
718.598	5.61
718.921	5.55
719.243	5.74
719.566	5.92
719.889	6.16
720.211	6.17
720.534	6.12
720.856	5.92
721.179	5.94
721.501	6.19
721.823	6.25
722.146	6.28
722.468	6.25
722.79	6.14
723.112	5.95
723.434	5.65
723.756	5.62
724.078	5.62
724.4	5.57
724.722	5.68
725.044	5.55
725.366	5.34
725.687	5.29
726.009	5.25
726.33	5.31
726.652	5.32
726.973	5.44
727.295	5.42
727.616	5.48
727.938	5.67
728.259	5.76
728.58	5.82
728.901	6.11
729.222	6.31
729.543	6.38
729.864	6.29
730.185	6.29
730.506	6.29
730.827	6.33
731.148	6.2
731.468	6.02
731.789	5.91
732.11	5.97
732.43	5.89
732.751	5.81
733.071	5.63
733.392	5.54
733.712	5.64
734.032	5.57
734.352	5.55
734.673	5.5
734.993	5.66
735.313	5.66
735.633	5.78
735.953	5.6
736.273	5.72
736.593	5.93
736.912	5.93
737.232	5.88
737.552	5.96
737.871	5.87
738.191	6.05
738.51	6.11
738.83	6.06
739.149	5.89
739.469	6.14
739.788	6.33
740.107	6.33
740.426	6.52
740.746	6.55
741.065	6.62
741.384	6.6
741.703	6.49
742.022	6.44
742.341	6.45
742.659	6.4
742.978	6.27
743.297	5.86
743.615	5.56
743.934	5.35
744.253	5.19
744.571	4.98
744.89	4.9
745.208	4.87
745.526	4.94
745.845	4.95
746.163	5.02
746.481	5.15
746.799	5.01
747.117	5.13
747.435	5.08
747.753	5.09
748.071	5.19
748.389	5.31
748.706	5.29
749.024	4.97
749.342	4.96
749.659	5.07
749.977	4.75
750.295	4.92
750.612	4.82
750.929	4.99
751.247	4.96
751.564	5.06
751.881	4.95
752.198	5.27
752.516	5.44
752.833	5.76
753.15	5.49
753.467	5.7
753.783	5.78
754.1	6.24
754.417	6.25
754.734	6.18
755.05	6.24
755.367	6.29
755.684	6.25
756.0	6.28
756.317	5.99
756.633	6.33
756.949	6.55
757.266	6.57
757.582	6.63
757.898	6.68
758.214	6.99
758.53	6.82
758.846	6.93
759.162	6.76
759.478	6.48
759.794	6.31
760.11	6.49
760.426	6.2
760.741	6.05
761.057	5.67
761.372	5.57
761.688	5.52
762.003	5.69
762.319	5.37
762.634	5.34
762.949	5.42
763.265	5.45
763.58	5.13
763.895	5.1
764.21	5.16
764.525	5.25
764.84	5.21
765.155	5.1
765.47	4.9
765.785	4.98
766.099	5.23
766.414	5.3
766.729	5.52
767.043	5.53
767.358	5.52
767.672	5.66
767.987	5.65
768.301	5.99
768.615	5.95
768.929	5.79
769.244	5.92
769.558	5.73
769.872	5.89
770.186	5.77
770.5	5.82
770.814	5.91
771.127	5.94
771.441	5.68
771.755	5.15
772.069	5.07
772.382	5.4
772.696	5.88
773.009	5.84
773.323	5.5
773.636	5.61
773.95	5.77
774.263	5.93
774.576	5.85
774.889	6.35
775.202	6.64
775.515	6.88
775.828	7.14
776.141	6.78
776.454	6.35
776.767	6.39
777.08	6.43
777.393	6.86
777.705	6.3
778.018	6.02
778.33	5.84
778.643	5.64
778.955	5.18
779.268	5.12
779.58	4.74
779.892	5.09
780.205	5.22
780.517	5.41
780.829	4.82
781.141	5.72
781.453	5.85
781.765	5.57
782.077	5.57
782.388	5.73
782.7	5.28
783.012	6.12
783.324	6.14
783.635	6.39
783.947	5.76
784.258	5.78
784.57	5.63
784.881	5.48
785.192	7.07
785.504	7.42
785.815	7.95
786.126	7.55
786.437	7.27
786.748	6.95
787.059	6.74
787.37	6.73
787.681	6.4
787.992	5.9
788.302	6.2
788.613	5.14
788.924	4.48
789.234	4.4
789.545	5.1
789.855	4.92
790.166	5.12
790.476	5.01
790.786	5.19
791.096	4.91
791.407	4.92
791.717	4.95
792.027	4.95
792.337	6.09
792.647	6.05
792.957	5.92
793.266	5.4
793.576	5.7
793.886	6.42
794.196	6.58
794.505	9.97
794.815	10.33
795.124	10.37
795.434	10.53
795.743	9.7
796.052	9.43
796.362	9.17
796.671	9.92
796.98	10.18
797.289	9.23
797.598	8.73
797.907	5.76
798.216	5.68
798.525	5.51
798.834	4.53
799.142	5.18
799.451	5.48
799.76	5.72
800.068	5.05
800.377	4.06
800.685	4.85
800.994	5.05
801.302	4.82
801.61	4.71
801.918	4.14
802.227	4.57
802.535	4.28
802.843	4.58
803.151	4.33
803.459	4.9
803.767	4.92
804.074	5.11
804.382	5.93
804.69	7.15
804.998	7.36
805.305	8.15
805.613	8.59
805.92	8.51
806.228	8.22
806.535	7.76
806.842	7.08
807.15	7.08
807.457	6.41
807.764	6.3
808.071	5.3
808.378	5.45
808.685	5.9
808.992	5.39
809.299	4.91
809.605	5.68
809.912	6.91
810.219	7.11
810.525	7.82
810.832	7.51
811.138	7.17
811.445	7.47
811.751	6.84
812.058	6.04
812.364	6.99
812.67	7.6
812.976	6.14
813.282	6.38
813.588	6.43
813.894	5.94
814.2	5.98
814.506	6.13
814.812	6.72
815.118	7.49
815.423	7.9
815.729	6.6
816.035	5.19
816.34	5.32
816.646	4.81
816.951	4.64
817.256	3.88
817.562	4.43
817.867	3.82
818.172	2.82
818.477	2.27
818.782	3.07
819.087	3.49
819.392	4.37
819.697	5.17
820.002	4.77
820.306	4.82
820.611	5.38
820.916	5.88
821.22	6.49
821.525	6.68
821.829	6.84
822.134	6.08
822.438	6.16
822.742	6.02
823.047	5.85
823.351	5.8
823.655	5.75
823.959	5.87
824.263	5.68
824.567	5.54
824.871	5.48
825.174	5.36
825.478	7.98
825.782	8.31
826.086	8.48
826.389	8.79
826.693	8.84
826.996	8.91
827.3	8.92
827.603	8.95
827.906	9.09
828.209	9.07
828.513	9.11
828.816	5.97
829.119	5.49
829.422	5.52
829.725	5.2
830.028	5.45
830.33	5.69
830.633	5.82
830.936	5.65
831.238	5.51
831.541	6.14
831.844	6.34
832.146	6.13
832.448	6.61
832.751	6.84
833.053	7.23
833.355	7.35
833.657	7.26
833.96	6.86
834.262	7.06
834.564	6.85
834.865	6.58
835.167	7.37
835.469	7.39
835.771	6.34
836.073	6.03
836.374	5.65
836.676	5.41
836.977	5.76
837.279	6.08
837.58	6.86
837.882	7.65
838.183	7.16
838.484	6.75
838.785	7.3
839.086	8.21
839.387	8.69
839.688	9.47
839.989	9.68
840.29	9.12
840.591	9.29
840.892	8.16
841.192	8.35
841.493	8.68
841.794	8.9
842.094	8.24
842.394	8.25
842.695	8.25
842.995	8.25
843.295	8.25
843.596	8.25
843.896	8.25
844.196	8.25
844.496	8.25
844.796	8.25
845.096	8.25
845.396	8.25
845.695	8.25
845.995	7.82
846.295	7.73
846.594	8.54
846.894	8.31
847.194	8.15
847.493	7.5
847.792	6.48
848.092	7.23
848.391	5.34
848.69	8.22
848.989	8.57
849.288	8.77
849.587	9.39
849.886	8.71
850.185	8.68
850.484	10.8
850.783	12.2
851.081	11.67
851.38	8.74
851.679	9.9
851.977	7.99
852.276	6.77
852.574	5.96
852.872	6.93
853.171	8.8
853.469	9.61
853.767	6.37
854.065	4.96
854.363	9.77
854.661	13.27
854.959	16
855.257	17.98
855.555	20.13
855.853	21.41
856.15	22.23
856.448	19.88
856.746	17.31
857.043	15.93
857.341	18.44
857.638	18.59
857.935	15.97
858.233	12.74
858.53	10.64
858.827	8.69
859.124	11.65
859.421	9.7
859.718	10.75
860.015	12.15
860.312	13.62
860.609	10.86
860.905	10.84
861.202	11.19
861.499	11.3
861.795	13.29
862.092	13.41
862.388	9.55
862.684	10.74
862.981	9.11
863.277	10.75
863.573	11.51
863.869	13.49
864.165	8.26
864.461	6.53
864.757	9.29
865.053	7.14
865.349	5.43
865.645	7
865.94	6.93
866.236	9.83
866.532	8.28
866.827	10.96
867.123	8.99
867.418	13.34
867.713	14.54
868.009	12.55
868.304	13.5
868.599	17.37
868.894	15.71
869.189	15.07
869.484	14.43
869.779	16.38
870.074	11.37
870.369	12.16
870.663	13.9
870.958	15.37
871.252	18.61
871.547	19.48
871.842	17.12
872.136	19.32
872.43	19.56
872.725	20.22
873.019	19.67
873.313	20.36
873.607	20.92
873.901	16.38
874.195	15.9
874.489	12.38
874.783	8.89
875.077	5.2
875.37	2.98
875.664	1.79
875.958	1.79
876.251	1.79
876.545	1.04
876.838	1.04
877.132	1.99
877.425	3.97
877.718	6.38
878.011	12.4
878.305	18.62
878.598	18.67
878.891	19.25
879.184	22.54
879.476	22.56
879.769	19.88
880.062	16.32
880.355	14.34
880.647	10.99
880.94	9.18
881.232	5.63
881.525	3.79
881.817	3.5
882.11	6.43
882.402	6.17
882.694	5.68
882.986	6.16
883.278	8.1
883.57	8.97
883.862	9.8
884.154	9.92
884.446	9.84
884.738	9.48
885.03	10.18
885.321	9.54
885.613	9.26
885.904	8.93
886.196	9.26
886.487	9.26
886.779	9.11
887.07	8.83
887.361	8.55
887.652	8.49
887.943	8.79
888.234	8.93
888.525	10.08
888.816	12.1
889.107	14.27
889.398	15.55
889.689	16.53
889.979	16.55
890.27	17.3
890.56	19.04
890.851	21.49
891.141	23.72
891.432	23.23
891.722	22.67
