Data from groin3_Reflection__0__12-20-34-608.txt Node

Date: Thu Aug 04 12:20:34 AEST 2022
User: kathy
Spectrometer: JAZA2503
Trigger mode: 0
Integration Time (sec): 2.883200E-1
Scans to average: 10
Electric dark correction enabled: true
Nonlinearity correction enabled: true
Boxcar width: 5
XAxis mode: Wavelengths
Number of Pixels in Spectrum: 2048
>>>>>Begin Spectral Data<<<<<
189.467	-146.44
189.852	-409.25
190.237	-10063.96
190.622	-669.04
191.007	-229.57
191.392	-415.67
191.777	-605.87
192.162	59.13
192.546	-12.7
192.931	-109.83
193.316	-179.77
193.701	-300.66
194.086	290.17
194.47	224.42
194.855	454.96
195.24	10170.57
195.624	671.86
196.009	-608.29
196.393	-416.44
196.778	2503.01
197.163	276.03
197.547	118.96
197.931	74.55
198.316	77.8
198.7	68.43
199.085	64.19
199.469	56.46
199.853	50.99
200.237	49.01
200.622	33.5
201.006	30.47
201.39	31.49
201.774	30.98
202.158	31.02
202.542	20.98
202.926	7.99
203.31	-7.3
203.694	-9.08
204.078	-21.24
204.462	-26.68
204.846	-19.71
205.23	-21.47
205.614	-27.16
205.998	-34.09
206.381	-29.09
206.765	-22.7
207.149	-14.65
207.532	-2.91
207.916	-5.46
208.3	-0.25
208.683	1.7
209.067	0.74
209.45	7.33
209.834	10.05
210.217	14.97
210.601	13.41
210.984	10.92
211.367	14.09
211.751	15.58
212.134	15.93
212.517	15.3
212.901	19.2
213.284	22.05
213.667	22.78
214.05	23.79
214.433	23.1
214.816	20.87
215.199	27.69
215.582	24.66
215.965	21.2
216.348	24.09
216.731	25.02
217.114	20.35
217.497	15.68
217.88	9.32
218.262	7.26
218.645	9.34
219.028	7.64
219.411	1.45
219.793	2.79
220.176	5.88
220.559	1.81
220.941	-0.66
221.324	0.1
221.706	0.17
222.089	1.71
222.471	2.48
222.853	-0.4
223.236	1.61
223.618	1.22
224	2.27
224.383	-0.68
224.765	1.94
225.147	3.15
225.529	3.81
225.912	3.97
226.294	3.35
226.676	3.13
227.058	3.53
227.44	2.68
227.822	2.75
228.204	2.18
228.586	2.97
228.968	2.75
229.349	2.81
229.731	3.08
230.113	2.74
230.495	3.03
230.877	2.98
231.258	3.31
231.64	3.5
232.022	3.53
232.403	3.74
232.785	3.93
233.166	3.98
233.548	3.67
233.929	3.18
234.311	3.51
234.692	2.98
235.073	2.92
235.455	2.87
235.836	2.74
236.217	2.76
236.599	2.37
236.98	1.75
237.361	1.41
237.742	1.33
238.123	1.32
238.504	1.26
238.885	1.24
239.266	1.11
239.647	0.58
240.028	1.02
240.409	0.83
240.79	0.92
241.171	1.07
241.552	1.13
241.933	1.22
242.313	1.32
242.694	1.38
243.075	1.75
243.456	1.75
243.836	2.01
244.217	1.8
244.597	1.95
244.978	2.03
245.358	2.09
245.739	2.15
246.119	2.1
246.5	2.05
246.88	1.99
247.26	1.81
247.641	1.78
248.021	1.77
248.401	1.74
248.781	1.74
249.162	1.73
249.542	1.73
249.922	1.73
250.302	1.8
250.682	1.86
251.062	1.96
251.442	1.94
251.822	2.07
252.202	2.02
252.582	2.18
252.961	2.18
253.341	2.22
253.721	2.15
254.101	2.16
254.48	2.13
254.86	1.91
255.24	1.94
255.619	2.09
255.999	1.86
256.378	1.67
256.758	1.54
257.137	1.34
257.517	1.34
257.896	1.46
258.276	1.37
258.655	1.3
259.034	1.25
259.414	1.06
259.793	0.96
260.172	1.01
260.551	1.04
260.93	0.99
261.309	1
261.688	0.99
262.068	0.97
262.447	1.02
262.825	0.98
263.204	1
263.583	1.03
263.962	1.09
264.341	1.13
264.72	1.17
265.099	1.24
265.477	1.36
265.856	1.33
266.235	1.18
266.613	1.02
266.992	1.05
267.371	1.11
267.749	1.23
268.128	1.15
268.506	1.11
268.884	1.06
269.263	1.02
269.641	0.91
270.02	0.9
270.398	0.9
270.776	0.96
271.154	0.99
271.533	0.99
271.911	0.94
272.289	0.95
272.667	1.01
273.045	1.03
273.423	1.05
273.801	1.07
274.179	1.09
274.557	1.09
274.935	1.13
275.313	1.08
275.69	1.07
276.068	1.03
276.446	1.03
276.824	0.98
277.201	0.99
277.579	0.96
277.957	1
278.334	0.95
278.712	0.98
279.089	0.92
279.467	1.01
279.844	1
280.222	0.98
280.599	0.97
280.976	0.96
281.354	0.92
281.731	0.96
282.108	0.97
282.485	0.99
282.863	1
283.24	0.98
283.617	0.95
283.994	0.94
284.371	1
284.748	1.03
285.125	1.04
285.502	1.04
285.879	1.03
286.256	1.04
286.633	1.07
287.009	1.11
287.386	1.17
287.763	1.23
288.139	1.3
288.516	1.33
288.893	1.32
289.269	1.33
289.646	1.43
290.022	1.45
290.399	1.45
290.775	1.48
291.152	1.48
291.528	1.52
291.904	1.52
292.281	1.53
292.657	1.52
293.033	1.62
293.41	1.67
293.786	1.67
294.162	1.72
294.538	1.8
294.914	1.86
295.29	1.91
295.666	1.96
296.042	1.97
296.418	2.04
296.794	2.11
297.17	2.12
297.546	2.18
297.921	2.22
298.297	2.27
298.673	2.31
299.048	2.34
299.424	2.41
299.8	2.46
300.175	2.54
300.551	2.59
300.926	2.64
301.302	2.73
301.677	2.78
302.053	2.88
302.428	2.92
302.803	2.97
303.179	3.04
303.554	3.11
303.929	3.21
304.304	3.27
304.68	3.33
305.055	3.42
305.43	3.46
305.805	3.5
306.18	3.53
306.555	3.62
306.93	3.68
307.305	3.71
307.679	3.73
308.054	3.69
308.429	3.7
308.804	3.73
309.179	3.75
309.553	3.78
309.928	3.83
310.303	3.89
310.677	3.94
311.052	3.98
311.426	3.98
311.801	4.02
312.175	4.07
312.55	4.13
312.924	4.15
313.298	4.17
313.673	4.22
314.047	4.28
314.421	4.26
314.795	4.31
315.17	4.33
315.544	4.41
315.918	4.47
316.292	4.54
316.666	4.63
317.04	4.73
317.414	4.82
317.788	4.91
318.162	4.98
318.535	5.1
318.909	5.2
319.283	5.28
319.657	5.41
320.03	5.51
320.404	5.68
320.778	5.9
321.151	6.19
321.525	6.49
321.898	6.79
322.272	7.11
322.645	7.38
323.019	7.69
323.392	7.99
323.765	8.4
324.139	8.77
324.512	9.15
324.885	9.59
325.258	9.95
325.632	10.25
326.005	10.53
326.378	10.62
326.751	10.7
327.124	10.7
327.497	10.69
327.87	10.59
328.243	10.59
328.616	10.61
328.988	10.62
329.361	10.57
329.734	10.54
330.107	10.51
330.479	10.43
330.852	10.31
331.225	10.25
331.597	10.18
331.97	10.05
332.342	9.87
332.715	9.73
333.087	9.59
333.46	9.43
333.832	9.33
334.204	9.28
334.577	9.22
334.949	9.16
335.321	9.09
335.693	9.05
336.065	8.96
336.438	8.87
336.81	8.78
337.182	8.69
337.554	8.57
337.926	8.38
338.298	8.21
338.669	8.02
339.041	7.92
339.413	7.82
339.785	7.71
340.157	7.62
340.528	7.54
340.9	7.42
341.272	7.34
341.643	7.28
342.015	7.28
342.386	7.32
342.758	7.37
343.129	7.43
343.501	7.49
343.872	7.54
344.243	7.55
344.615	7.55
344.986	7.57
345.357	7.55
345.728	7.54
346.099	7.51
346.471	7.47
346.842	7.42
347.213	7.41
347.584	7.34
347.955	7.31
348.326	7.25
348.697	7.18
349.067	7.13
349.438	7.14
349.809	7.16
350.18	7.22
350.55	7.23
350.921	7.28
351.292	7.32
351.662	7.33
352.033	7.35
352.403	7.36
352.774	7.39
353.144	7.39
353.515	7.4
353.885	7.4
354.255	7.38
354.626	7.39
354.996	7.4
355.366	7.38
355.736	7.39
356.107	7.37
356.477	7.37
356.847	7.35
357.217	7.38
357.587	7.39
357.957	7.41
358.327	7.43
358.697	7.46
359.066	7.46
359.436	7.5
359.806	7.52
360.176	7.6
360.546	7.6
360.915	7.58
361.285	7.59
361.654	7.6
362.024	7.61
362.393	7.62
362.763	7.61
363.132	7.62
363.502	7.64
363.871	7.65
364.24	7.66
364.61	7.7
364.979	7.77
365.348	7.82
365.717	7.88
366.087	7.93
366.456	7.96
366.825	8.03
367.194	8.09
367.563	8.13
367.932	8.19
368.301	8.24
368.669	8.3
369.038	8.33
369.407	8.36
369.776	8.41
370.145	8.48
370.513	8.53
370.882	8.58
371.25	8.63
371.619	8.71
371.988	8.78
372.356	8.83
372.724	8.91
373.093	8.99
373.461	9.07
373.83	9.15
374.198	9.22
374.566	9.32
374.934	9.39
375.303	9.47
375.671	9.52
376.039	9.59
376.407	9.67
376.775	9.75
377.143	9.84
377.511	9.91
377.879	9.99
378.247	10.08
378.615	10.16
378.982	10.27
379.35	10.37
379.718	10.47
380.086	10.57
380.453	10.67
380.821	10.76
381.188	10.83
381.556	10.93
381.923	11.02
382.291	11.11
382.658	11.19
383.026	11.27
383.393	11.33
383.76	11.45
384.128	11.54
384.495	11.63
384.862	11.71
385.229	11.83
385.596	11.92
385.963	12.01
386.33	12.08
386.697	12.17
387.064	12.26
387.431	12.34
387.798	12.4
388.165	12.49
388.532	12.55
388.899	12.6
389.265	12.64
389.632	12.69
389.999	12.73
390.365	12.79
390.732	12.82
391.098	12.86
391.465	12.91
391.831	12.93
392.198	12.96
392.564	13.01
392.93	13.07
393.297	13.11
393.663	13.15
394.029	13.2
394.395	13.26
394.762	13.32
395.128	13.37
395.494	13.42
395.86	13.5
396.226	13.55
396.592	13.6
396.958	13.66
397.323	13.71
397.689	13.76
398.055	13.8
398.421	13.84
398.787	13.88
399.152	13.92
399.518	13.94
399.883	13.97
400.249	14.02
400.615	14.07
400.98	14.09
401.345	14.13
401.711	14.16
402.076	14.19
402.442	14.2
402.807	14.2
403.172	14.22
403.537	14.23
403.902	14.23
404.268	14.24
404.633	14.25
404.998	14.25
405.363	14.25
405.728	14.26
406.093	14.28
406.457	14.31
406.822	14.37
407.187	14.4
407.552	14.45
407.917	14.48
408.281	14.5
408.646	14.54
409.011	14.59
409.375	14.63
409.74	14.65
410.104	14.69
410.469	14.71
410.833	14.72
411.197	14.75
411.562	14.76
411.926	14.78
412.29	14.81
412.655	14.82
413.019	14.84
413.383	14.86
413.747	14.91
414.111	14.95
414.475	15.01
414.839	15.05
415.203	15.09
415.567	15.14
415.931	15.2
416.295	15.23
416.658	15.27
417.022	15.28
417.386	15.29
417.749	15.31
418.113	15.3
418.477	15.3
418.84	15.33
419.204	15.35
419.567	15.35
419.931	15.37
420.294	15.41
420.657	15.45
421.021	15.5
421.384	15.55
421.747	15.58
422.11	15.63
422.473	15.66
422.836	15.69
423.199	15.7
423.562	15.72
423.925	15.74
424.288	15.74
424.651	15.76
425.014	15.78
425.377	15.79
425.74	15.81
426.102	15.85
426.465	15.88
426.828	15.92
427.19	15.95
427.553	16.01
427.916	16.03
428.278	16.04
428.641	16.04
429.003	16.05
429.365	16.07
429.728	16.08
430.09	16.06
430.452	16.05
430.814	16.03
431.177	16.04
431.539	16.02
431.901	16.04
432.263	16.09
432.625	16.11
432.987	16.15
433.349	16.18
433.711	16.24
434.072	16.33
434.434	16.4
434.796	16.47
435.158	16.57
435.519	16.64
435.881	16.71
436.243	16.76
436.604	16.8
436.966	16.85
437.327	16.9
437.689	16.91
438.05	16.91
438.411	16.95
438.773	17
439.134	17.01
439.495	17.06
439.856	17.09
440.218	17.15
440.579	17.22
440.94	17.27
441.301	17.34
441.662	17.42
442.023	17.5
442.384	17.55
442.745	17.6
443.105	17.65
443.466	17.69
443.827	17.73
444.188	17.75
444.548	17.79
444.909	17.81
445.269	17.82
445.63	17.85
445.99	17.84
446.351	17.87
446.711	17.88
447.072	17.91
447.432	17.93
447.792	17.97
448.153	18.01
448.513	18.03
448.873	18.08
449.233	18.08
449.593	18.09
449.953	18.12
450.313	18.14
450.673	18.16
451.033	18.18
451.393	18.18
451.753	18.19
452.113	18.72
452.472	18.71
452.832	18.65
453.192	18.62
453.551	18.59
453.911	18.56
454.271	18.54
454.63	18.55
454.989	18.53
455.349	18.55
455.708	18.55
456.068	18.27
456.427	18.29
456.786	18.34
457.145	18.4
457.505	18.46
457.864	18.53
458.223	18.62
458.582	18.71
458.941	18.8
459.3	18.87
459.659	18.93
460.018	18.99
460.376	19.02
460.735	19.05
461.094	19.06
461.453	19.08
461.811	19.09
462.17	19.08
462.529	19.08
462.887	19.07
463.246	19.08
463.604	19.08
463.963	19.1
464.321	19.23
464.679	19.25
465.038	19.27
465.396	19.3
465.754	19.34
466.112	19.39
466.47	19.44
466.828	19.5
467.186	19.54
467.544	19.6
467.902	19.63
468.26	19.54
468.618	19.59
468.976	19.64
469.334	19.64
469.692	19.63
470.049	19.64
470.407	19.62
470.765	19.6
471.122	19.61
471.48	19.63
471.837	19.68
472.195	19.73
472.552	19.79
472.909	19.85
473.267	19.92
473.624	20
473.981	20.04
474.338	20.09
474.696	20.15
475.053	20.21
475.41	20.25
475.767	20.28
476.124	20.31
476.481	20.33
476.838	20.37
477.194	20.39
477.551	20.43
477.908	20.47
478.265	20.52
478.621	20.56
478.978	20.59
479.335	20.63
479.691	20.69
480.048	20.74
480.404	20.79
480.761	20.84
481.117	20.9
481.473	20.92
481.83	20.99
482.186	21.02
482.542	21.06
482.898	21.12
483.255	21.17
483.611	21.2
483.967	21.24
484.323	21.29
484.679	21.31
485.035	21.34
485.39	21.39
485.746	21.41
486.102	21.44
486.458	21.47
486.814	21.49
487.169	21.51
487.525	21.54
487.88	21.57
488.236	21.6
488.591	21.64
488.947	21.65
489.302	21.65
489.658	21.67
490.013	21.7
490.368	21.72
490.723	21.72
491.079	21.73
491.434	21.74
491.789	21.74
492.144	21.74
492.499	21.76
492.854	21.78
493.209	21.81
493.564	21.85
493.919	21.87
494.273	21.89
494.628	21.91
494.983	21.92
495.338	21.94
495.692	21.95
496.047	21.94
496.401	21.92
496.756	21.88
497.11	21.86
497.465	21.81
497.819	21.78
498.173	21.75
498.528	21.73
498.882	21.74
499.236	21.73
499.59	21.76
499.944	21.79
500.298	21.83
500.652	21.86
501.006	21.88
501.36	21.91
501.714	21.91
502.068	21.94
502.422	21.96
502.776	21.98
503.129	22
503.483	22.01
503.837	22.04
504.19	22.06
504.544	22.06
504.897	22.06
505.251	22.05
505.604	22.04
505.958	22.01
506.311	21.98
506.664	21.92
507.017	21.87
507.371	21.8
507.724	21.72
508.077	21.64
508.43	21.59
508.783	21.56
509.136	21.53
509.489	21.51
509.842	21.47
510.195	21.43
510.547	21.41
510.9	21.37
511.253	21.33
511.606	21.27
511.958	21.21
512.311	21.14
512.663	21.06
513.016	20.96
513.368	20.9
513.721	20.84
514.073	20.78
514.425	20.73
514.778	20.69
515.13	20.66
515.482	20.62
515.834	20.58
516.186	20.58
516.538	20.58
516.89	20.61
517.242	20.63
517.594	20.64
517.946	20.67
518.298	20.66
518.65	20.65
519.001	20.62
519.353	20.6
519.705	20.58
520.056	20.53
520.408	20.44
520.759	20.35
521.111	20.24
521.462	20.18
521.814	20.12
522.165	20.07
522.516	20.01
522.868	19.98
523.219	19.92
523.57	19.88
523.921	19.81
524.272	19.78
524.623	19.72
524.974	19.67
525.325	19.6
525.676	19.54
526.027	19.47
526.378	19.42
526.728	19.35
527.079	19.3
527.43	19.24
527.78	19.19
528.131	19.13
528.481	19.07
528.832	19.03
529.182	18.98
529.533	18.92
529.883	18.9
530.233	18.84
530.584	18.79
530.934	18.73
531.284	18.68
531.634	18.63
531.984	18.58
532.334	18.55
532.684	18.47
533.034	18.44
533.384	18.4
533.734	18.34
534.084	18.29
534.434	18.24
534.783	18.21
535.133	18.15
535.483	18.08
535.832	18.03
536.182	17.98
536.531	17.95
536.881	17.87
537.23	17.82
537.58	17.73
537.929	17.65
538.278	18.68
538.628	18.57
538.977	18.51
539.326	18.45
539.675	18.38
540.024	18.31
540.373	18.26
540.722	18.19
541.071	18.15
541.42	18.12
541.769	18.06
542.117	16.92
542.466	16.89
542.815	16.87
543.163	16.83
543.512	16.81
543.861	16.76
544.209	16.71
544.558	16.67
544.906	16.59
545.254	16.55
545.603	16.52
545.951	16.51
546.299	16.51
546.647	16.5
546.996	16.45
547.344	16.4
547.692	16.38
548.04	16.34
548.388	16.32
548.736	16.3
549.083	16.24
549.431	16.2
549.779	16.12
550.127	16.04
550.475	15.95
550.822	15.88
551.17	15.84
551.517	15.79
551.865	15.75
552.212	15.7
552.56	15.66
552.907	15.59
553.254	15.55
553.602	15.5
553.949	15.41
554.296	15.33
554.643	15.32
554.99	15.24
555.337	15.17
555.684	15.07
556.031	14.96
556.378	14.87
556.725	14.83
557.072	14.77
557.419	14.73
557.765	14.69
558.112	14.66
558.459	14.58
558.805	14.54
559.152	14.5
559.498	14.46
559.845	14.43
560.191	14.38
560.538	14.33
560.884	14.29
561.23	14.25
561.576	14.18
561.923	14.07
562.269	14.02
562.615	14
562.961	13.95
563.307	13.93
563.653	13.91
563.999	13.86
564.344	13.82
564.69	13.76
565.036	13.73
565.382	13.73
565.727	13.72
566.073	13.68
566.419	13.61
566.764	13.55
567.11	13.49
567.455	13.41
567.8	13.39
568.146	13.31
568.491	13.25
568.836	13.17
569.181	13.12
569.527	13.07
569.872	13.03
570.217	12.96
570.562	12.91
570.907	12.88
571.252	12.85
571.597	12.81
571.941	12.77
572.286	12.76
572.631	12.73
572.976	12.72
573.32	12.69
573.665	12.64
574.009	12.62
574.354	12.59
574.698	12.58
575.043	12.55
575.387	12.54
575.731	12.53
576.076	12.52
576.42	12.51
576.764	12.49
577.108	12.45
577.452	12.41
577.796	12.38
578.14	12.32
578.484	12.29
578.828	12.28
579.172	12.27
579.516	12.23
579.86	12.2
580.203	12.19
580.547	12.15
580.891	12.12
581.234	12.11
581.578	12.1
581.921	12.08
582.264	12.02
582.608	12.03
582.951	12.02
583.294	12.01
583.638	11.96
583.981	11.95
584.324	11.93
584.667	11.89
585.01	11.89
585.353	11.87
585.696	11.87
586.039	11.87
586.382	11.86
586.725	11.84
587.067	11.82
587.41	11.79
587.753	11.78
588.095	11.77
588.438	11.75
588.781	11.72
589.123	11.68
589.465	11.67
589.808	11.66
590.15	11.63
590.492	11.59
590.835	11.55
591.177	11.52
591.519	11.51
591.861	11.5
592.203	11.5
592.545	11.48
592.887	11.46
593.229	11.44
593.571	11.4
593.913	11.37
594.254	11.35
594.596	11.32
594.938	11.32
595.279	11.29
595.621	11.27
595.963	11.27
596.304	11.27
596.645	11.25
596.987	11.23
597.328	11.18
597.669	11.17
598.011	11.18
598.352	11.18
598.693	11.17
599.034	11.16
599.375	11.14
599.716	11.13
600.057	11.09
600.398	11.08
600.739	11.07
601.08	11.07
601.42	11.07
601.761	11.04
602.102	11.03
602.442	11.03
602.783	11.02
603.123	11.02
603.464	11
603.804	10.98
604.145	10.97
604.485	10.93
604.825	10.93
605.166	10.94
605.506	10.93
605.846	10.93
606.186	10.93
606.526	10.92
606.866	10.91
607.206	10.9
607.546	10.91
607.886	10.87
608.225	10.84
608.565	10.83
608.905	10.81
609.245	10.78
609.584	10.77
609.924	10.76
610.263	10.74
610.603	10.72
610.942	10.71
611.281	10.69
611.621	10.67
611.96	10.67
612.299	10.65
612.638	10.64
612.978	10.59
613.317	10.55
613.656	10.5
613.995	10.48
614.334	10.46
614.672	10.44
615.011	10.4
615.35	10.38
615.689	10.37
616.027	10.34
616.366	10.35
616.705	10.32
617.043	10.26
617.382	10.23
617.72	10.21
618.059	10.15
618.397	10.14
618.735	10.11
619.073	10.1
619.412	10.09
619.75	10.08
620.088	10.03
620.426	10.06
620.764	10.05
621.102	10.04
621.44	10.01
621.778	9.99
622.115	9.98
622.453	9.98
622.791	9.97
623.129	9.97
623.466	9.96
623.804	9.9
624.141	9.89
624.479	9.88
624.816	9.87
625.153	9.88
625.491	9.88
625.828	9.87
626.165	9.86
626.502	9.77
626.84	9.79
627.177	9.8
627.514	9.73
627.851	9.71
628.188	9.65
628.524	9.63
628.861	9.6
629.198	9.61
629.535	9.6
629.871	9.55
630.208	9.51
630.545	9.56
630.881	9.53
631.218	9.55
631.554	9.53
631.89	9.54
632.227	9.54
632.563	9.54
632.899	9.5
633.235	9.5
633.572	9.46
633.908	9.43
634.244	9.36
634.58	9.29
634.916	9.27
635.251	9.27
635.587	9.24
635.923	9.22
636.259	9.19
636.595	9.18
636.93	9.13
637.266	9.16
637.601	9.12
637.937	9.12
638.272	9.15
638.608	9.12
638.943	9.08
639.278	9.03
639.613	8.98
639.949	8.93
640.284	8.92
640.619	8.9
640.954	8.84
641.289	8.83
641.624	8.84
641.959	8.76
642.294	8.68
642.628	8.66
642.963	8.66
643.298	8.62
643.632	8.67
643.967	8.64
644.302	8.59
644.636	8.65
644.971	8.65
645.305	8.58
645.639	8.57
645.974	8.57
646.308	8.54
646.642	8.54
646.976	8.57
647.31	8.49
647.644	8.46
647.978	8.44
648.312	8.32
648.646	8.31
648.98	8.32
649.314	8.28
649.647	8.22
649.981	8.2
650.315	8.11
650.648	8.06
650.982	8.02
651.315	8.01
651.649	7.98
651.982	8
652.316	7.96
652.649	7.94
652.982	8.04
653.315	8.07
653.648	8.06
653.982	8.11
654.315	8.07
654.648	8.04
654.981	8.05
655.313	8.08
655.646	8.08
655.979	8.09
656.312	8.04
656.644	7.97
656.977	7.95
657.31	7.91
657.642	7.87
657.975	7.92
658.307	7.94
658.64	7.94
658.972	7.86
659.304	7.85
659.636	7.84
659.969	7.82
660.301	7.83
660.633	7.81
660.965	7.82
661.297	7.8
661.629	7.77
661.961	7.77
662.292	7.73
662.624	7.78
662.956	7.81
663.288	7.82
663.619	7.82
663.951	7.72
664.282	7.69
664.614	7.63
664.945	7.62
665.276	7.55
665.608	7.51
665.939	7.44
666.27	7.35
666.601	7.29
666.933	7.26
667.264	7.3
667.595	7.33
667.926	7.35
668.256	7.39
668.587	7.41
668.918	7.44
669.249	7.5
669.58	7.51
669.91	7.49
670.241	7.5
670.571	7.5
670.902	7.5
671.232	7.47
671.563	7.4
671.893	7.34
672.223	7.27
672.554	7.26
672.884	7.23
673.214	7.22
673.544	7.33
673.874	7.3
674.204	7.32
674.534	7.24
674.864	7.26
675.194	7.25
675.524	7.33
675.853	7.4
676.183	7.34
676.513	7.33
676.842	7.3
677.172	7.24
677.501	7.31
677.831	7.24
678.16	7.25
678.489	7.27
678.819	7.35
679.148	7.28
679.477	7.18
679.806	7.18
680.135	7.17
680.464	7.14
680.793	7.13
681.122	7.02
681.451	6.93
681.78	6.92
682.108	6.88
682.437	6.87
682.766	6.81
683.094	6.89
683.423	6.84
683.751	6.78
684.08	6.76
684.408	6.69
684.737	6.76
685.065	6.75
685.393	6.77
685.721	6.78
686.049	6.68
686.377	6.77
686.705	6.62
687.033	6.68
687.361	6.72
687.689	6.76
688.017	6.86
688.345	6.8
688.673	6.87
689.0	6.87
689.328	6.86
689.655	6.93
689.983	6.98
690.31	7.08
690.638	7.02
690.965	6.95
691.292	6.96
691.62	6.9
691.947	6.89
692.274	6.84
692.601	6.8
692.928	6.82
693.255	6.75
693.582	6.65
693.909	6.64
694.236	6.74
694.562	6.84
694.889	6.83
695.216	6.87
695.542	6.97
695.869	6.99
696.196	7.04
696.522	6.94
696.848	6.94
697.175	6.96
697.501	6.97
697.827	6.92
698.154	6.85
698.48	6.73
698.806	6.66
699.132	6.5
699.458	6.5
699.784	6.42
700.11	6.44
700.435	6.48
700.761	6.41
701.087	6.31
701.413	6.33
701.738	6.36
702.064	6.44
702.389	6.45
702.715	6.58
703.04	6.65
703.366	6.61
703.691	6.7
704.016	6.54
704.341	6.63
704.666	6.62
704.992	6.54
705.317	6.57
705.642	6.52
705.967	6.44
706.291	6.38
706.616	6.29
706.941	6.39
707.266	6.33
707.59	6.52
707.915	6.51
708.24	6.52
708.564	6.51
708.889	6.5
709.213	6.55
709.537	6.59
709.862	6.56
710.186	6.51
710.51	6.49
710.834	6.57
711.158	6.55
711.482	6.47
711.806	6.59
712.13	6.62
712.454	6.56
712.778	6.66
713.102	6.67
713.426	6.75
713.749	6.75
714.073	6.8
714.396	6.67
714.72	6.66
715.043	6.73
715.367	6.7
715.69	6.66
716.013	6.58
716.337	6.49
716.66	6.51
716.983	6.55
717.306	6.58
717.629	6.38
717.952	6.38
718.275	6.34
718.598	6.3
718.921	6.29
719.243	6.47
719.566	6.66
719.889	6.63
720.211	6.57
720.534	6.47
720.856	6.34
721.179	6.47
721.501	6.46
721.823	6.34
722.146	6.43
722.468	6.38
722.79	6.19
723.112	5.93
723.434	6.02
723.756	5.98
724.078	5.96
724.4	5.96
724.722	6.06
725.044	6
725.366	5.99
725.687	5.86
726.009	5.88
726.33	5.99
726.652	6.26
726.973	6.09
727.295	6.17
727.616	6.11
727.938	6.33
728.259	6.24
728.58	6.24
728.901	6.48
729.222	6.52
729.543	6.51
729.864	6.4
730.185	6.15
730.506	6.26
730.827	6.24
731.148	6.23
731.468	6.13
731.789	6.13
732.11	6.11
732.43	5.85
732.751	5.9
733.071	5.81
733.392	5.95
733.712	6.1
734.032	6.19
734.352	6.26
734.673	6.27
734.993	6.09
735.313	6.09
735.633	6.61
735.953	6.71
736.273	6.82
736.593	6.97
736.912	6.74
737.232	6.56
737.552	6.47
737.871	6.35
738.191	6.51
738.51	6.75
738.83	6.95
739.149	6.55
739.469	6.73
739.788	6.54
740.107	6.46
740.426	6.57
740.746	6.78
741.065	6.69
741.384	6.68
741.703	6.5
742.022	6.31
742.341	6.2
742.659	6.21
742.978	6.04
743.297	6.19
743.615	6.08
743.934	6.13
744.253	5.95
744.571	6.08
744.89	6.22
745.208	6.2
745.526	6.24
745.845	6.09
746.163	5.77
746.481	5.95
746.799	5.98
747.117	6.05
747.435	6.27
747.753	6.5
748.071	6.54
748.389	6.49
748.706	6.61
749.024	6.57
749.342	6.89
749.659	7.46
749.977	7.44
750.295	7.55
750.612	7.82
750.929	7.58
751.247	7.67
751.564	7.72
751.881	7.79
752.198	8.2
752.516	8.41
752.833	8.33
753.15	7.92
753.467	7.58
753.783	7.31
754.1	7.3
754.417	7.27
754.734	7.08
755.05	6.87
755.367	6.53
755.684	6.13
756.0	6
756.317	5.81
756.633	5.83
756.949	6.24
757.266	6.2
757.582	5.75
757.898	5.6
758.214	5.55
758.53	5.48
758.846	5.69
759.162	5.65
759.478	5.5
759.794	5.42
760.11	5.46
760.426	5.21
760.741	5.35
761.057	5.42
761.372	5.27
761.688	5.24
762.003	5.3
762.319	5.24
762.634	5.41
762.949	5.62
763.265	5.94
763.58	5.8
763.895	5.82
764.21	5.71
764.525	5.66
764.84	5.86
765.155	6.1
765.47	6.24
765.785	6.22
766.099	6.46
766.414	6.24
766.729	5.89
767.043	6.17
767.358	6.17
767.672	6.04
767.987	6.35
768.301	6.22
768.615	5.97
768.929	5.86
769.244	6.15
769.558	6.03
769.872	6.19
770.186	6.4
770.5	5.91
770.814	5.53
771.127	5.71
771.441	5.53
771.755	5.91
772.069	5.54
772.382	5.37
772.696	5.2
773.009	4.63
773.323	4.86
773.636	4.76
773.95	5.23
774.263	5.94
774.576	5.78
774.889	5.97
775.202	5.86
775.515	6.48
775.828	6.49
776.141	6.73
776.454	7.05
776.767	6.66
777.08	6.75
777.393	6.49
777.705	6.19
778.018	6.5
778.33	6.65
778.643	6.59
778.955	6.27
779.268	6.35
779.58	5.88
779.892	5.96
780.205	6.09
780.517	6.09
780.829	6.25
781.141	6.45
781.453	6.12
781.765	6.11
782.077	5.78
782.388	5.76
782.7	5.59
783.012	6.03
783.324	5.61
783.635	5.59
783.947	5.68
784.258	5.2
784.57	4.93
784.881	4.87
785.192	4.12
785.504	4.37
785.815	4.22
786.126	4.24
786.437	4.21
786.748	4.28
787.059	4.45
787.37	4.13
787.681	4.52
787.992	4.62
788.302	5.15
788.613	5.74
788.924	5.83
789.234	6.36
789.545	6.68
789.855	6.44
790.166	6.17
790.476	6.19
790.786	6.41
791.096	6.93
791.407	7.11
791.717	6.87
792.027	6.85
792.337	6.76
792.647	6.44
792.957	6.45
793.266	6.63
793.576	7.09
793.886	7.01
794.196	6.67
794.505	10.24
794.815	10.47
795.124	10.72
795.434	10.62
795.743	10.39
796.052	10.54
796.362	10.28
796.671	9.84
796.98	10.15
797.289	10.2
797.598	10.31
797.907	6.18
798.216	6.05
798.525	6.02
798.834	5.8
799.142	6.01
799.451	6.15
799.76	6.47
800.068	6.88
800.377	6.69
800.685	7.4
800.994	8.03
801.302	8.37
801.61	8.26
801.918	7.93
802.227	7.57
802.535	7.8
802.843	7.82
803.151	7.88
803.459	7.84
803.767	7.65
804.074	6.87
804.382	6.4
804.69	8.19
804.998	7.88
805.305	8.2
805.613	8.78
805.92	8.92
806.228	8.99
806.535	8.41
806.842	8.11
807.15	8.3
807.457	8.38
807.764	8.07
808.071	6.14
808.378	6.73
808.685	6.76
808.992	6.56
809.299	6.44
809.605	6.16
809.912	6.99
810.219	7.02
810.525	7.03
810.832	7.08
811.138	7.43
811.445	7.25
811.751	6.73
812.058	6.38
812.364	6.72
812.67	6.24
812.976	6.09
813.282	5.26
813.588	4.74
813.894	5.41
814.2	4.79
814.506	4.6
814.812	3.98
815.118	3.9
815.423	3.84
815.729	3.99
816.035	3.57
816.34	3.43
816.646	4.58
816.951	5.65
817.256	4.71
817.562	5.66
817.867	5.69
818.172	6.82
818.477	7.01
818.782	7.26
819.087	7.5
819.392	8.06
819.697	7.72
820.002	6.46
820.306	6.14
820.611	6.34
820.916	6.23
821.22	6.27
821.525	5.7
821.829	5.99
822.134	6.24
822.438	6.07
822.742	6.23
823.047	6.51
823.351	6.62
823.655	6.68
823.959	6.54
824.263	6.44
824.567	6.54
824.871	6.78
825.174	6.89
825.478	8.42
825.782	8.61
826.086	8.74
826.389	8.82
826.693	9.07
826.996	9.1
827.3	9.35
827.603	9.37
827.906	9.29
828.209	9.54
828.513	9.52
828.816	7.29
829.119	6.92
829.422	6.77
829.725	6.43
830.028	6.24
830.33	5.69
830.633	5.55
830.936	5.36
831.238	5.18
831.541	4.42
831.844	4.09
832.146	4.32
832.448	4.62
832.751	4.44
833.053	5.1
833.355	5.48
833.657	5.59
833.96	5.69
834.262	5.76
834.564	6.47
834.865	6.77
835.167	8.41
835.469	8.7
835.771	8.34
836.073	8.27
836.374	7.92
836.676	7.27
836.977	8.03
837.279	8.01
837.58	8.45
837.882	8.25
838.183	8.19
838.484	6.15
838.785	5.68
839.086	6.39
839.387	7.16
839.688	8.09
839.989	8.58
840.29	8.11
840.591	8.67
840.892	8.33
841.192	9.04
841.493	9.12
841.794	9.98
842.094	10.58
842.394	10.36
842.695	10.36
842.995	10.36
843.295	10.36
843.596	10.36
843.896	10.36
844.196	10.36
844.496	10.36
844.796	10.36
845.096	10.36
845.396	10.36
845.695	10.36
845.995	6.35
846.295	8.3
846.594	9.95
846.894	10.89
847.194	11.01
847.493	11.87
847.792	13.32
848.092	13.65
848.391	13.17
848.69	14.42
848.989	13.95
849.288	12.51
849.587	12.82
849.886	12.54
850.185	12.45
850.484	13.23
850.783	14
851.081	13
851.38	12.65
851.679	13.67
851.977	13.02
852.276	14.65
852.574	16.63
852.872	16.57
853.171	14.82
853.469	12.32
853.767	10.45
854.065	10.14
854.363	8.46
854.661	9.34
854.959	7.59
855.257	5.39
855.555	4.36
855.853	3.5
856.15	3.94
856.448	5.39
856.746	7.67
857.043	8.35
857.341	10.93
857.638	17.94
857.935	15.76
858.233	15.61
858.53	17.96
858.827	20.33
859.124	17.56
859.421	15.68
859.718	17.59
860.015	17.39
860.312	18.54
860.609	16
860.905	10.03
861.202	10.65
861.499	10.99
861.795	12.54
862.092	10.55
862.388	10.31
862.684	10.23
862.981	7.88
863.277	5.14
863.573	5.43
863.869	4.57
864.165	1.85
864.461	2.12
864.757	1.21
865.053	1.21
865.349	0.37
865.645	2.29
865.94	2.4
866.236	0.72
866.532	2.72
866.827	0.77
867.123	1.57
867.418	5.36
867.713	4.18
868.009	4.62
868.304	5.6
868.599	6.28
868.894	6.43
869.189	7.32
869.484	11.98
869.779	12.06
870.074	16.31
870.369	18.65
870.663	19.66
870.958	21.77
871.252	22.29
871.547	22.83
871.842	22.7
872.136	23.03
872.43	23.31
872.725	20.67
873.019	21.25
873.313	19.84
873.607	16.66
873.901	15.09
874.195	13.39
874.489	12.44
874.783	9.64
875.077	5.97
875.37	8.76
875.664	8.22
875.958	10.71
876.251	9.98
876.545	8.58
876.838	7.89
877.132	8.89
877.425	11.09
877.718	12.58
878.011	13.33
878.305	17.19
878.598	14.13
878.891	13.32
879.184	9.18
879.476	11.26
879.769	9.79
880.062	9.8
880.355	6.04
880.647	5.38
880.94	2.68
881.232	2.2
881.525	2.2
881.817	0.57
882.11	2.77
882.402	3.99
882.694	2.21
882.986	3.23
883.278	4.07
883.57	5.61
883.862	5.77
884.154	7.1
884.446	7.14
884.738	7.87
885.03	7.98
885.321	7.63
885.613	8
885.904	8.58
886.196	9.35
886.487	9.93
886.779	9.47
887.07	9.77
887.361	9.64
887.652	9.87
887.943	9.36
888.234	9.97
888.525	10.39
888.816	10.7
889.107	11.56
889.398	10.7
889.689	10.35
889.979	11.29
890.27	9.98
890.56	9.47
890.851	10.13
891.141	11.66
891.432	10.53
891.722	10.34
