Data from groin1_Reflection__2__14-57-03-514.txt Node

Date: Thu Aug 04 14:57:03 AEST 2022
User: kathy
Spectrometer: JAZA2503
Trigger mode: 0
Integration Time (sec): 2.439700E-1
Scans to average: 10
Electric dark correction enabled: true
Nonlinearity correction enabled: true
Boxcar width: 5
XAxis mode: Wavelengths
Number of Pixels in Spectrum: 2048
>>>>>Begin Spectral Data<<<<<
189.467	339.32
189.852	210.41
190.237	174.84
190.622	174.18
191.007	255.35
191.392	145.36
191.777	106.57
192.162	92.07
192.546	50.04
192.931	217.19
193.316	106.87
193.701	192.75
194.086	106.55
194.47	31.86
194.855	328.6
195.24	-97.52
195.624	179.71
196.009	149.28
196.393	172.24
196.778	241.01
197.163	134.88
197.547	78.13
197.931	60.01
198.316	58.12
198.7	65.03
199.085	55.61
199.469	42.52
199.853	39.33
200.237	36.54
200.622	36.94
201.006	38.91
201.39	34.37
201.774	31.94
202.158	36.38
202.542	30.62
202.926	19.47
203.31	18.34
203.694	22.01
204.078	18.79
204.462	25.99
204.846	26.25
205.23	27.77
205.614	24.85
205.998	26.1
206.381	29.32
206.765	30.82
207.149	36.45
207.532	38.69
207.916	40.34
208.3	43.11
208.683	40.23
209.067	43.7
209.45	39.3
209.834	44.86
210.217	43.57
210.601	38.33
210.984	44.46
211.367	52.34
211.751	47.32
212.134	46.68
212.517	44.92
212.901	46.38
213.284	46.95
213.667	48.68
214.05	45.6
214.433	44.79
214.816	44.88
215.199	39.8
215.582	37.05
215.965	37.45
216.348	38.28
216.731	35.28
217.114	28.97
217.497	22.58
217.88	19.08
218.262	16.92
218.645	14.38
219.028	11.93
219.411	7.65
219.793	3.31
220.176	3.44
220.559	3.56
220.941	7.97
221.324	11.46
221.706	16.43
222.089	18.74
222.471	19.84
222.853	17.76
223.236	19.29
223.618	19.34
224	19.48
224.383	16.61
224.765	14.01
225.147	11.93
225.529	10.72
225.912	8.34
226.294	6.77
226.676	5
227.058	4.94
227.44	3.83
227.822	3.88
228.204	4.28
228.586	4.49
228.968	4.88
229.349	4.77
229.731	4.53
230.113	3.76
230.495	3.64
230.877	3.94
231.258	4.42
231.64	4.38
232.022	4.27
232.403	4.31
232.785	4.42
233.166	4.24
233.548	3.94
233.929	3.78
234.311	4.37
234.692	4.62
235.073	4.36
235.455	4.08
235.836	4.55
236.217	4.56
236.599	4.59
236.98	4.94
237.361	5
237.742	5.13
238.123	4.57
238.504	4.47
238.885	4.21
239.266	4.23
239.647	3.96
240.028	3.62
240.409	3.31
240.79	3.15
241.171	2.7
241.552	2.69
241.933	2.62
242.313	2.97
242.694	3.07
243.075	3.02
243.456	2.88
243.836	2.94
244.217	3.07
244.597	3.16
244.978	3.04
245.358	3.22
245.739	3.04
246.119	2.94
246.5	2.83
246.88	2.68
247.26	2.72
247.641	2.61
248.021	2.61
248.401	2.51
248.781	2.57
249.162	2.6
249.542	2.51
249.922	2.52
250.302	2.63
250.682	2.65
251.062	2.7
251.442	2.73
251.822	2.84
252.202	2.73
252.582	2.51
252.961	2.45
253.341	2.5
253.721	2.65
254.101	2.86
254.48	2.91
254.86	3.03
255.24	3.07
255.619	3.03
255.999	3.14
256.378	3.1
256.758	3.33
257.137	3.29
257.517	2.98
257.896	2.72
258.276	2.57
258.655	2.31
259.034	2.09
259.414	1.93
259.793	1.83
260.172	1.75
260.551	1.73
260.93	1.65
261.309	1.63
261.688	1.67
262.068	1.62
262.447	1.54
262.825	1.57
263.204	1.52
263.583	1.57
263.962	1.59
264.341	1.74
264.72	1.69
265.099	1.79
265.477	1.78
265.856	1.81
266.235	1.93
266.613	1.93
266.992	1.89
267.371	1.96
267.749	2.02
268.128	1.94
268.506	1.83
268.884	2.04
269.263	1.96
269.641	1.91
270.02	1.9
270.398	1.8
270.776	1.87
271.154	1.91
271.533	1.96
271.911	1.92
272.289	1.99
272.667	2.01
273.045	1.92
273.423	1.89
273.801	1.87
274.179	1.77
274.557	1.84
274.935	1.72
275.313	1.68
275.69	1.63
276.068	1.63
276.446	1.56
276.824	1.42
277.201	1.33
277.579	1.41
277.957	1.48
278.334	1.54
278.712	1.52
279.089	1.55
279.467	1.53
279.844	1.51
280.222	1.41
280.599	1.39
280.976	1.48
281.354	1.52
281.731	1.46
282.108	1.43
282.485	1.44
282.863	1.4
283.24	1.44
283.617	1.5
283.994	1.51
284.371	1.52
284.748	1.61
285.125	1.64
285.502	1.67
285.879	1.7
286.256	1.74
286.633	1.78
287.009	1.88
287.386	1.91
287.763	1.93
288.139	1.95
288.516	2.08
288.893	2.13
289.269	2.17
289.646	2.23
290.022	2.29
290.399	2.33
290.775	2.37
291.152	2.41
291.528	2.5
291.904	2.53
292.281	2.6
292.657	2.67
293.033	2.71
293.41	2.79
293.786	2.86
294.162	2.99
294.538	3.06
294.914	3.18
295.29	3.29
295.666	3.41
296.042	3.56
296.418	3.69
296.794	3.76
297.17	3.91
297.546	4.02
297.921	4.13
298.297	4.22
298.673	4.31
299.048	4.39
299.424	4.49
299.8	4.55
300.175	4.64
300.551	4.74
300.926	4.83
301.302	4.92
301.677	5
302.053	5.1
302.428	5.21
302.803	5.35
303.179	5.48
303.554	5.56
303.929	5.65
304.304	5.75
304.68	5.87
305.055	6
305.43	6.1
305.805	6.18
306.18	6.24
306.555	6.3
306.93	6.41
307.305	6.47
307.679	6.54
308.054	6.6
308.429	6.62
308.804	6.63
309.179	6.68
309.553	6.7
309.928	6.73
310.303	6.82
310.677	6.87
311.052	6.85
311.426	6.89
311.801	6.95
312.175	7.02
312.55	7.13
312.924	7.19
313.298	7.21
313.673	7.3
314.047	7.41
314.421	7.47
314.795	7.54
315.17	7.64
315.544	7.73
315.918	7.83
316.292	7.94
316.666	8.02
317.04	8.16
317.414	8.3
317.788	8.43
318.162	8.59
318.535	8.77
318.909	8.97
319.283	9.23
319.657	9.44
320.03	9.69
320.404	9.98
320.778	10.63
321.151	11.42
321.525	12.41
321.898	13.52
322.272	14.76
322.645	16.13
323.019	17.58
323.392	19.18
323.765	20.89
324.139	22.69
324.512	24.6
324.885	26.48
325.258	28.33
325.632	29.95
326.005	31.39
326.378	32.56
326.751	33.5
327.124	34.2
327.497	34.7
327.87	35.16
328.243	35.45
328.616	35.67
328.988	35.81
329.361	35.83
329.734	35.77
330.107	35.66
330.479	35.46
330.852	35.23
331.225	34.96
331.597	34.69
331.97	34.28
332.342	33.94
332.715	33.62
333.087	33.27
333.46	33.05
333.832	32.87
334.204	32.71
334.577	32.63
334.949	32.5
335.321	32.36
335.693	32.13
336.065	31.89
336.438	31.57
336.81	31.27
337.182	30.98
337.554	30.68
337.926	30.47
338.298	30.28
338.669	30.13
339.041	30
339.413	29.87
339.785	29.72
340.157	29.55
340.528	29.46
340.9	29.29
341.272	29.17
341.643	29.09
342.015	29.1
342.386	29.16
342.758	29.25
343.129	29.42
343.501	29.48
343.872	29.45
344.243	29.44
344.615	29.35
344.986	29.24
345.357	29.29
345.728	29.34
346.099	29.34
346.471	29.32
346.842	29.33
347.213	29.25
347.584	29.2
347.955	29.15
348.326	29.12
348.697	29.07
349.067	29.04
349.438	29.05
349.809	29.14
350.18	29.29
350.55	29.31
350.921	29.37
351.292	29.48
351.662	29.55
352.033	29.63
352.403	29.69
352.774	29.74
353.144	29.78
353.515	29.82
353.885	29.81
354.255	29.78
354.626	29.78
354.996	29.78
355.366	29.77
355.736	29.83
356.107	29.83
356.477	29.88
356.847	29.94
357.217	29.95
357.587	29.98
357.957	30.04
358.327	30.1
358.697	30.15
359.066	30.18
359.436	30.25
359.806	30.25
360.176	30.27
360.546	30.32
360.915	30.36
361.285	30.4
361.654	30.41
362.024	30.43
362.393	30.43
362.763	30.46
363.132	30.52
363.502	30.53
363.871	30.57
364.24	30.63
364.61	30.63
364.979	30.64
365.348	30.67
365.717	30.73
366.087	30.78
366.456	30.86
366.825	30.93
367.194	30.96
367.563	31.01
367.932	31.04
368.301	31.09
368.669	31.21
369.038	31.32
369.407	31.39
369.776	31.44
370.145	31.49
370.513	31.53
370.882	31.58
371.25	31.7
371.619	31.74
371.988	31.78
372.356	31.83
372.724	31.82
373.093	31.83
373.461	31.85
373.83	31.94
374.198	31.97
374.566	32.03
374.934	32.08
375.303	32.13
375.671	32.21
376.039	32.33
376.407	32.42
376.775	32.49
377.143	32.58
377.511	32.68
377.879	32.72
378.247	32.81
378.615	32.9
378.982	32.94
379.35	32.97
379.718	33.08
380.086	33.13
380.453	33.19
380.821	33.28
381.188	33.33
381.556	33.38
381.923	33.47
382.291	33.53
382.658	33.61
383.026	33.73
383.393	33.81
383.76	33.87
384.128	33.96
384.495	34.01
384.862	34.06
385.229	34.13
385.596	34.19
385.963	34.23
386.33	34.3
386.697	34.38
387.064	34.43
387.431	34.49
387.798	34.51
388.165	34.58
388.532	34.67
388.899	34.73
389.265	34.8
389.632	34.89
389.999	34.92
390.365	34.99
390.732	35.04
391.098	35.09
391.465	35.13
391.831	35.17
392.198	35.2
392.564	35.2
392.93	35.24
393.297	35.3
393.663	35.34
394.029	35.4
394.395	35.43
394.762	35.46
395.128	35.5
395.494	35.54
395.86	35.59
396.226	35.67
396.592	35.74
396.958	35.79
397.323	35.81
397.689	35.87
398.055	35.96
398.421	36.03
398.787	36.08
399.152	36.14
399.518	36.22
399.883	36.26
400.249	36.3
400.615	36.36
400.98	36.41
401.345	36.47
401.711	36.5
402.076	36.49
402.442	36.54
402.807	36.55
403.172	36.58
403.537	36.59
403.902	36.68
404.268	36.71
404.633	36.75
404.998	36.76
405.363	36.78
405.728	36.82
406.093	36.87
406.457	36.88
406.822	36.95
407.187	37.02
407.552	37.13
407.917	37.16
408.281	37.19
408.646	37.25
409.011	37.33
409.375	37.44
409.74	37.51
410.104	37.57
410.469	37.63
410.833	37.7
411.197	37.72
411.562	37.74
411.926	37.78
412.29	37.85
412.655	37.88
413.019	37.92
413.383	37.96
413.747	37.96
414.111	37.99
414.475	38.06
414.839	38.13
415.203	38.2
415.567	38.25
415.931	38.29
416.295	38.35
416.658	38.36
417.022	38.39
417.386	38.41
417.749	38.47
418.113	38.53
418.477	38.56
418.84	38.54
419.204	38.59
419.567	38.61
419.931	38.66
420.294	38.7
420.657	38.76
421.021	38.81
421.384	38.86
421.747	38.95
422.11	39.01
422.473	39.02
422.836	39.09
423.199	39.13
423.562	39.17
423.925	39.2
424.288	39.23
424.651	39.23
425.014	39.28
425.377	39.31
425.74	39.27
426.102	39.28
426.465	39.37
426.828	39.41
427.19	39.44
427.553	39.49
427.916	39.52
428.278	39.52
428.641	39.6
429.003	39.59
429.365	39.58
429.728	39.64
430.09	39.67
430.452	39.67
430.814	39.69
431.177	39.73
431.539	39.76
431.901	39.8
432.263	39.88
432.625	39.91
432.987	39.95
433.349	40.06
433.711	40.12
434.072	40.22
434.434	40.3
434.796	40.36
435.158	40.41
435.519	40.5
435.881	40.58
436.243	40.61
436.604	40.7
436.966	40.75
437.327	40.76
437.689	40.83
438.05	40.82
438.411	40.86
438.773	40.95
439.134	41
439.495	41.05
439.856	41.12
440.218	41.19
440.579	41.24
440.94	41.34
441.301	41.45
441.662	41.51
442.023	41.62
442.384	41.7
442.745	41.75
443.105	41.82
443.466	41.89
443.827	41.94
444.188	42.02
444.548	42.08
444.909	42.14
445.269	42.19
445.63	42.19
445.99	42.23
446.351	42.29
446.711	42.29
447.072	42.34
447.432	42.32
447.792	42.36
448.153	42.41
448.513	42.45
448.873	42.49
449.233	42.53
449.593	42.61
449.953	42.65
450.313	42.69
450.673	42.79
451.033	42.84
451.393	42.95
451.753	43
452.113	43.27
452.472	43.29
452.832	43.33
453.192	43.35
453.551	43.38
453.911	43.38
454.271	43.37
454.63	43.4
454.989	43.47
455.349	43.48
455.708	43.52
456.068	43.43
456.427	43.48
456.786	43.52
457.145	43.59
457.505	43.67
457.864	43.76
458.223	43.88
458.582	43.98
458.941	44.04
459.3	44.12
459.659	44.18
460.018	44.23
460.376	44.28
460.735	44.35
461.094	44.39
461.453	44.43
461.811	44.48
462.17	44.52
462.529	44.56
462.887	44.6
463.246	44.64
463.604	44.67
463.963	44.72
464.321	44.78
464.679	44.8
465.038	44.86
465.396	44.91
465.754	44.98
466.112	45.04
466.47	45.14
466.828	45.22
467.186	45.31
467.544	45.39
467.902	45.44
468.26	45.48
468.618	45.57
468.976	45.64
469.334	45.67
469.692	45.68
470.049	45.7
470.407	45.69
470.765	45.71
471.122	45.78
471.48	45.89
471.837	45.99
472.195	46.08
472.552	46.16
472.909	46.23
473.267	46.3
473.624	46.4
473.981	46.45
474.338	46.57
474.696	46.62
475.053	46.68
475.41	46.7
475.767	46.76
476.124	46.8
476.481	46.86
476.838	46.92
477.194	46.97
477.551	47.03
477.908	47.08
478.265	47.12
478.621	47.21
478.978	47.26
479.335	47.33
479.691	47.4
480.048	47.47
480.404	47.53
480.761	47.58
481.117	47.64
481.473	47.66
481.83	47.72
482.186	47.75
482.542	47.77
482.898	47.82
483.255	47.87
483.611	47.89
483.967	47.94
484.323	47.94
484.679	48
485.035	48.04
485.39	48.11
485.746	48.15
486.102	48.2
486.458	48.26
486.814	48.29
487.169	48.36
487.525	48.42
487.88	48.44
488.236	48.48
488.591	48.48
488.947	48.48
489.302	48.5
489.658	48.52
490.013	48.52
490.368	48.53
490.723	48.54
491.079	48.48
491.434	48.48
491.789	48.48
492.144	48.45
492.499	48.48
492.854	48.5
493.209	48.53
493.564	48.56
493.919	48.61
494.273	48.62
494.628	48.62
494.983	48.67
495.338	48.68
495.692	48.69
496.047	48.75
496.401	48.75
496.756	48.74
497.11	48.69
497.465	48.67
497.819	48.64
498.173	48.62
498.528	48.67
498.882	48.65
499.236	48.65
499.59	48.68
499.944	48.76
500.298	48.79
500.652	48.81
501.006	48.85
501.36	48.85
501.714	48.84
502.068	48.84
502.422	48.82
502.776	48.84
503.129	48.87
503.483	48.86
503.837	48.82
504.19	48.81
504.544	48.77
504.897	48.74
505.251	48.71
505.604	48.69
505.958	48.65
506.311	48.61
506.664	48.56
507.017	48.45
507.371	48.38
507.724	48.3
508.077	48.19
508.43	48.16
508.783	48.13
509.136	48.12
509.489	48.09
509.842	48.06
510.195	48.05
510.547	47.98
510.9	47.98
511.253	47.87
511.606	47.81
511.958	47.73
512.311	47.66
512.663	47.54
513.016	47.46
513.368	47.34
513.721	47.29
514.073	47.21
514.425	47.17
514.778	47.08
515.13	47.06
515.482	47.02
515.834	47.01
516.186	46.97
516.538	46.94
516.89	46.94
517.242	46.97
517.594	46.92
517.946	46.92
518.298	46.9
518.65	46.9
519.001	46.87
519.353	46.83
519.705	46.73
520.056	46.66
520.408	46.62
520.759	46.48
521.111	46.4
521.462	46.33
521.814	46.27
522.165	46.19
522.516	46.11
522.868	46.05
523.219	45.99
523.57	45.97
523.921	45.9
524.272	45.81
524.623	45.79
524.974	45.69
525.325	45.6
525.676	45.45
526.027	45.4
526.378	45.32
526.728	45.28
527.079	45.2
527.43	45.15
527.78	45.11
528.131	45.02
528.481	44.92
528.832	44.84
529.182	44.77
529.533	44.69
529.883	44.56
530.233	44.5
530.584	44.38
530.934	44.23
531.284	44.1
531.634	43.97
531.984	43.96
532.334	43.81
532.684	43.71
533.034	43.64
533.384	43.57
533.734	43.5
534.084	43.39
534.434	43.3
534.783	43.23
535.133	43.11
535.483	43.04
535.832	42.87
536.182	42.78
536.531	42.71
536.881	42.61
537.23	42.55
537.58	42.43
537.929	42.32
538.278	42.82
538.628	42.69
538.977	42.61
539.326	42.47
539.675	42.38
540.024	42.28
540.373	42.18
540.722	42.09
541.071	41.94
541.42	41.89
541.769	41.79
542.117	41.13
542.466	41.07
542.815	40.98
543.163	40.9
543.512	40.78
543.861	40.73
544.209	40.63
544.558	40.52
544.906	40.44
545.254	40.3
545.603	40.24
545.951	40.13
546.299	40.02
546.647	39.92
546.996	39.83
547.344	39.73
547.692	39.62
548.04	39.56
548.388	39.46
548.736	39.35
549.083	39.24
549.431	39.05
549.779	38.94
550.127	38.84
550.475	38.71
550.822	38.57
551.17	38.47
551.517	38.37
551.865	38.22
552.212	38.11
552.56	37.97
552.907	37.9
553.254	37.84
553.602	37.7
553.949	37.59
554.296	37.45
554.643	37.33
554.99	37.21
555.337	37.05
555.684	36.91
556.031	36.77
556.378	36.66
556.725	36.46
557.072	36.34
557.419	36.21
557.765	36.07
558.112	35.97
558.459	35.89
558.805	35.78
559.152	35.69
559.498	35.58
559.845	35.42
560.191	35.3
560.538	35.18
560.884	35.06
561.23	34.98
561.576	34.9
561.923	34.74
562.269	34.59
562.615	34.46
562.961	34.32
563.307	34.19
563.653	34.14
563.999	34.05
564.344	33.92
564.69	33.77
565.036	33.65
565.382	33.51
565.727	33.42
566.073	33.33
566.419	33.2
566.764	33.11
567.11	33
567.455	32.87
567.8	32.7
568.146	32.59
568.491	32.48
568.836	32.32
569.181	32.19
569.527	32.06
569.872	31.91
570.217	31.78
570.562	31.65
570.907	31.55
571.252	31.41
571.597	31.31
571.941	31.21
572.286	31.07
572.631	31.03
572.976	30.97
573.32	30.89
573.665	30.86
574.009	30.86
574.354	30.82
574.698	30.76
575.043	30.74
575.387	30.76
575.731	30.59
576.076	30.47
576.42	30.47
576.764	30.45
577.108	30.36
577.452	30.33
577.796	30.27
578.14	30.2
578.484	30.13
578.828	30.11
579.172	30
579.516	30.01
579.86	29.9
580.203	29.85
580.547	29.8
580.891	29.76
581.234	29.65
581.578	29.58
581.921	29.45
582.264	29.42
582.608	29.29
582.951	29.24
583.294	29.22
583.638	29.19
583.981	29.15
584.324	29.03
584.667	28.98
585.01	28.9
585.353	28.87
585.696	28.88
586.039	28.78
586.382	28.73
586.725	28.71
587.067	28.67
587.41	28.61
587.753	28.56
588.095	28.49
588.438	28.46
588.781	28.45
589.123	28.38
589.465	28.35
589.808	28.31
590.15	28.25
590.492	28.2
590.835	28.16
591.177	28.06
591.519	27.97
591.861	27.91
592.203	27.89
592.545	27.87
592.887	27.81
593.229	27.7
593.571	27.68
593.913	27.57
594.254	27.54
594.596	27.45
594.938	27.46
595.279	27.42
595.621	27.34
595.963	27.25
596.304	27.22
596.645	27.2
596.987	27.12
597.328	27.08
597.669	27.03
598.011	26.96
598.352	26.89
598.693	26.86
599.034	26.83
599.375	26.79
599.716	26.72
600.057	26.62
600.398	26.6
600.739	26.59
601.08	26.57
601.42	26.55
601.761	26.52
602.102	26.47
602.442	26.44
602.783	26.39
603.123	26.35
603.464	26.22
603.804	26.2
604.145	26.17
604.485	26.13
604.825	26.06
605.166	26.04
605.506	25.99
605.846	25.97
606.186	25.89
606.526	25.84
606.866	25.8
607.206	25.78
607.546	25.75
607.886	25.69
608.225	25.62
608.565	25.54
608.905	25.45
609.245	25.41
609.584	25.31
609.924	25.27
610.263	25.18
610.603	25.12
610.942	25.13
611.281	25.01
611.621	24.97
611.96	24.85
612.299	24.76
612.638	24.76
612.978	24.71
613.317	24.61
613.656	24.56
613.995	24.49
614.334	24.35
614.672	24.37
615.011	24.33
615.35	24.27
615.689	24.15
616.027	24.13
616.366	24.01
616.705	23.99
617.043	23.94
617.382	23.84
617.72	23.81
618.059	23.75
618.397	23.71
618.735	23.68
619.073	23.63
619.412	23.61
619.75	23.56
620.088	23.5
620.426	23.43
620.764	23.4
621.102	23.35
621.44	23.31
621.778	23.27
622.115	23.2
622.453	23.16
622.791	23.11
623.129	23.06
623.466	23.01
623.804	22.97
624.141	22.95
624.479	22.92
624.816	22.92
625.153	22.89
625.491	22.82
625.828	22.8
626.165	22.74
626.502	22.71
626.84	22.67
627.177	22.57
627.514	22.52
627.851	22.45
628.188	22.37
628.524	22.25
628.861	22.17
629.198	22.09
629.535	22
629.871	21.93
630.208	21.82
630.545	21.68
630.881	21.58
631.218	21.53
631.554	21.46
631.89	21.36
632.227	21.3
632.563	21.26
632.899	21.16
633.235	21.04
633.572	20.94
633.908	20.87
634.244	20.89
634.58	20.84
634.916	20.7
635.251	20.63
635.587	20.56
635.923	20.51
636.259	20.45
636.595	20.37
636.93	20.34
637.266	20.35
637.601	20.25
637.937	20.1
638.272	20.03
638.608	19.95
638.943	19.9
639.278	19.83
639.613	19.69
639.949	19.61
640.284	19.53
640.619	19.45
640.954	19.31
641.289	19.28
641.624	19.22
641.959	19.15
642.294	19.09
642.628	18.98
642.963	18.94
643.298	18.89
643.632	18.89
643.967	18.77
644.302	18.65
644.636	18.6
644.971	18.5
645.305	18.5
645.639	18.4
645.974	18.39
646.308	18.28
646.642	18.14
646.976	18.13
647.31	17.95
647.644	17.99
647.978	18
648.312	17.98
648.646	17.97
648.98	17.93
649.314	17.84
649.647	17.73
649.981	17.66
650.315	17.56
650.648	17.43
650.982	17.4
651.315	17.29
651.649	17.22
651.982	17.11
652.316	17.09
652.649	17
652.982	17
653.315	16.94
653.648	16.96
653.982	17.02
654.315	17
654.648	16.96
654.981	16.94
655.313	16.87
655.646	16.86
655.979	16.74
656.312	16.74
656.644	16.7
656.977	16.64
657.31	16.51
657.642	16.41
657.975	16.33
658.307	16.25
658.64	16.14
658.972	16.07
659.304	16.02
659.636	15.97
659.969	15.83
660.301	15.68
660.633	15.65
660.965	15.62
661.297	15.6
661.629	15.61
661.961	15.54
662.292	15.54
662.624	15.49
662.956	15.42
663.288	15.4
663.619	15.43
663.951	15.4
664.282	15.36
664.614	15.34
664.945	15.29
665.276	15.17
665.608	15.11
665.939	15.04
666.27	14.99
666.601	14.93
666.933	14.79
667.264	14.7
667.595	14.72
667.926	14.71
668.256	14.68
668.587	14.59
668.918	14.56
669.249	14.51
669.58	14.53
669.91	14.48
670.241	14.44
670.571	14.52
670.902	14.44
671.232	14.37
671.563	14.25
671.893	14.21
672.223	14.19
672.554	14.23
672.884	14.28
673.214	14.23
673.544	14.25
673.874	14.25
674.204	14.18
674.534	14.18
674.864	14.16
675.194	14.2
675.524	14.13
675.853	14.16
676.183	14.03
676.513	14.05
676.842	14
677.172	13.85
677.501	13.75
677.831	13.65
678.16	13.57
678.489	13.47
678.819	13.43
679.148	13.45
679.477	13.39
679.806	13.33
680.135	13.17
680.464	13.05
680.793	13.06
681.122	13
681.451	13.04
681.78	13.03
682.108	13
682.437	12.87
682.766	12.79
683.094	12.7
683.423	12.68
683.751	12.71
684.08	12.7
684.408	12.58
684.737	12.61
685.065	12.46
685.393	12.49
685.721	12.51
686.049	12.61
686.377	12.59
686.705	12.61
687.033	12.68
687.361	12.6
687.689	12.54
688.017	12.57
688.345	12.57
688.673	12.68
689.0	12.67
689.328	12.63
689.655	12.52
689.983	12.55
690.31	12.44
690.638	12.35
690.965	12.34
691.292	12.45
691.62	12.52
691.947	12.42
692.274	12.33
692.601	12.16
692.928	12.16
693.255	12.09
693.582	12
693.909	12.06
694.236	12.04
694.562	11.97
694.889	11.93
695.216	11.88
695.542	11.99
695.869	11.95
696.196	12.06
696.522	11.89
696.848	11.97
697.175	11.91
697.501	11.76
697.827	11.66
698.154	11.74
698.48	11.63
698.806	11.56
699.132	11.44
699.458	11.53
699.784	11.52
700.11	11.52
700.435	11.47
700.761	11.46
701.087	11.54
701.413	11.56
701.738	11.44
702.064	11.41
702.389	11.3
702.715	11.27
703.04	11.18
703.366	11.08
703.691	11.13
704.016	11.12
704.341	11.2
704.666	11.16
704.992	11.11
705.317	11.19
705.642	11.28
705.967	11.28
706.291	11.25
706.616	11.13
706.941	11.14
707.266	11.16
707.59	10.96
707.915	10.92
708.24	10.79
708.564	10.78
708.889	10.71
709.213	10.58
709.537	10.46
709.862	10.31
710.186	10.39
710.51	10.32
710.834	10.25
711.158	10.32
711.482	10.27
711.806	10.38
712.13	10.43
712.454	10.49
712.778	10.64
713.102	10.73
713.426	10.87
713.749	10.94
714.073	11.1
714.396	11.14
714.72	11.28
715.043	11.23
715.367	11.13
715.69	11.07
716.013	10.97
716.337	10.88
716.66	10.96
716.983	11.01
717.306	10.97
717.629	10.78
717.952	10.63
718.275	10.52
718.598	10.38
718.921	10.37
719.243	10.35
719.566	10.43
719.889	10.55
720.211	10.53
720.534	10.5
720.856	10.34
721.179	10.38
721.501	10.53
721.823	10.49
722.146	10.58
722.468	10.65
722.79	10.69
723.112	10.51
723.434	10.39
723.756	10.49
724.078	10.54
724.4	10.46
724.722	10.45
725.044	10.33
725.366	10.08
725.687	10.11
726.009	10.13
726.33	10.12
726.652	10.14
726.973	9.98
727.295	9.82
727.616	9.62
727.938	9.52
728.259	9.52
728.58	9.56
728.901	9.93
729.222	10.05
729.543	10.11
729.864	10.1
730.185	10.1
730.506	10.08
730.827	10.13
731.148	10.32
731.468	10.53
731.789	10.71
732.11	10.67
732.43	10.64
732.751	10.68
733.071	10.5
733.392	10.46
733.712	10.59
734.032	10.67
734.352	10.65
734.673	10.43
734.993	10.28
735.313	10.15
735.633	10.24
735.953	10.05
736.273	9.88
736.593	9.87
736.912	9.93
737.232	9.88
737.552	9.85
737.871	9.77
738.191	9.82
738.51	10.09
738.83	9.93
739.149	9.87
739.469	10.1
739.788	10.2
740.107	10.23
740.426	10.33
740.746	10.38
741.065	10.46
741.384	10.42
741.703	10.58
742.022	10.26
742.341	10.35
742.659	10.44
742.978	10.32
743.297	10.06
743.615	10.08
743.934	9.91
744.253	9.63
744.571	9.6
744.89	9.59
745.208	9.65
745.526	9.76
745.845	9.66
746.163	9.35
746.481	9.58
746.799	9.39
747.117	9.22
747.435	9.01
747.753	8.95
748.071	8.83
748.389	8.74
748.706	8.49
749.024	8.64
749.342	8.53
749.659	8.9
749.977	8.48
750.295	8.71
750.612	8.93
750.929	8.99
751.247	9.29
751.564	9.42
751.881	9.77
752.198	10.11
752.516	10.03
752.833	10.28
753.15	10.05
753.467	10.26
753.783	10.36
754.1	10.45
754.417	10.36
754.734	10.02
755.05	10.31
755.367	10.14
755.684	9.71
756.0	9.61
756.317	9.51
756.633	9.66
756.949	9.49
757.266	9.54
757.582	9.23
757.898	9.59
758.214	10.05
758.53	9.67
758.846	9.76
759.162	9.9
759.478	9.92
759.794	9.92
760.11	10.13
760.426	10.35
760.741	10.22
761.057	10.35
761.372	10.3
761.688	10.1
762.003	10.14
762.319	9.89
762.634	9.95
762.949	9.8
763.265	9.61
763.58	9.33
763.895	9.03
764.21	9.15
764.525	9.09
764.84	9.02
765.155	8.87
765.47	8.74
765.785	8.73
766.099	8.6
766.414	8.6
766.729	8.62
767.043	8.67
767.358	8.77
767.672	8.72
767.987	8.71
768.301	9.19
768.615	9.39
768.929	9.43
769.244	9.78
769.558	9.94
769.872	10.36
770.186	10.74
770.5	10.57
770.814	10.81
771.127	10.77
771.441	10.86
771.755	10.14
772.069	9.69
772.382	9.8
772.696	9.64
773.009	9.18
773.323	8.74
773.636	8.37
773.95	8.23
774.263	8.09
774.576	7.77
774.889	8
775.202	8.25
775.515	8.97
775.828	9.01
776.141	8.75
776.454	8.98
776.767	8.99
777.08	9.28
777.393	9.2
777.705	9.16
778.018	8.99
778.33	8.38
778.643	7.75
778.955	7.54
779.268	7.72
779.58	7.83
779.892	7.69
780.205	7.97
780.517	8.1
780.829	8.59
781.141	8.66
781.453	9.22
781.765	9.49
782.077	9.48
782.388	9.11
782.7	8.22
783.012	8.38
783.324	8.64
783.635	8.96
783.947	8.3
784.258	8.37
784.57	8.47
784.881	8.33
785.192	8.75
785.504	9.43
785.815	9.9
786.126	10.25
786.437	10.28
786.748	10.43
787.059	10.05
787.37	10.81
787.681	10.74
787.992	10.9
788.302	11.49
788.613	11.65
788.924	11.44
789.234	11.38
789.545	11.71
789.855	11.63
790.166	11.57
790.476	11.14
790.786	10.23
791.096	9.33
791.407	8.52
791.717	7.87
792.027	7.23
792.337	7.51
792.647	7.5
792.957	7.2
793.266	7.14
793.576	7.36
793.886	8.61
794.196	9.65
794.505	11.68
794.815	12.28
795.124	12.51
795.434	13.19
795.743	13.05
796.052	12.85
796.362	12.9
796.671	13.15
796.98	13.03
797.289	11.77
797.598	10.96
797.907	9.85
798.216	9.75
798.525	9.49
798.834	8.58
799.142	8.75
799.451	8.84
799.76	8.61
800.068	8.4
800.377	7.69
800.685	8.32
800.994	8.49
801.302	7.92
801.61	7.98
801.918	7.96
802.227	8.24
802.535	7.75
802.843	8.08
803.151	7.96
803.459	7.95
803.767	8.09
804.074	8.11
804.382	8.39
804.69	9.07
804.998	8.91
805.305	9.37
805.613	9.48
805.92	9.64
806.228	8.85
806.535	8.49
806.842	8.25
807.15	8.05
807.457	7.78
807.764	7.74
808.071	6.81
808.378	6.68
808.685	6.18
808.992	6.17
809.299	5.95
809.605	6.83
809.912	8.09
810.219	7.49
810.525	8.78
810.832	8.87
811.138	9.3
811.445	9.94
811.751	10.61
812.058	10.65
812.364	11.02
812.67	11.98
812.976	11.78
813.282	11.66
813.588	12.05
813.894	11.59
814.2	11.5
814.506	10.78
814.812	11.35
815.118	11.05
815.423	11.09
815.729	9.78
816.035	8.62
816.34	9.06
816.646	8.76
816.951	9.28
817.256	8.72
817.562	9.39
817.867	9.5
818.172	9.04
818.477	8.45
818.782	9.2
819.087	10.04
819.392	10.71
819.697	10.05
820.002	10.07
820.306	9.51
820.611	9.61
820.916	9.23
821.22	9.53
821.525	9.49
821.829	9.7
822.134	9.05
822.438	8.81
822.742	8.47
823.047	8.4
823.351	8.39
823.655	8.46
823.959	8.4
824.263	8.27
824.567	8.18
824.871	7.99
825.174	7.77
825.478	8.02
825.782	8
826.086	8.06
826.389	8.18
826.693	8.22
826.996	8.1
827.3	8.15
827.603	8.15
827.906	8.09
828.209	8.29
828.513	8.42
828.816	8.47
829.119	8.62
829.422	8.53
829.725	8.53
830.028	8.49
830.33	8.96
830.633	9.34
830.936	9.38
831.238	9.5
831.541	9.77
831.844	9.66
832.146	8.94
832.448	8.65
832.751	9.24
833.053	9.1
833.355	9.67
833.657	9.31
833.96	8.88
834.262	8.99
834.564	8.87
834.865	8.71
835.167	10.04
835.469	10.35
835.771	10.2
836.073	9.96
836.374	10.18
836.676	9.59
836.977	9.86
837.279	10.52
837.58	11.15
837.882	11.99
838.183	12.24
838.484	12.16
838.785	12.81
839.086	13.67
839.387	13.7
839.688	13.96
839.989	14.46
840.29	14.5
840.591	13.78
840.892	12.65
841.192	12.69
841.493	11.69
841.794	10.73
842.094	9.73
842.394	9.54
842.695	6.31
842.995	4.71
843.295	3.72
843.596	2.34
843.896	2.72
844.196	3.89
844.496	1.72
844.796	1.89
845.096	1.43
845.396	1.45
845.695	2.62
845.995	8.69
846.295	9.32
846.594	10.84
846.894	13.03
847.194	13.55
847.493	14.11
847.792	16.09
848.092	15.82
848.391	15.54
848.69	16.03
848.989	15.17
849.288	13.24
849.587	12.99
849.886	13.82
850.185	13.96
850.484	13.64
850.783	14.36
851.081	13.18
851.38	13.86
851.679	14.57
851.977	15.71
852.276	14.82
852.574	14.71
852.872	16.61
853.171	15.22
853.469	13.28
853.767	11.8
854.065	10.44
854.363	11.49
854.661	12.05
854.959	11.13
855.257	12.19
855.555	14.06
855.853	15.13
856.15	13.97
856.448	12.7
856.746	13.82
857.043	14.37
857.341	16.27
857.638	16
857.935	13.67
858.233	13.56
858.53	12.12
858.827	13.49
859.124	13.99
859.421	14.91
859.718	16.22
860.015	14.41
860.312	14.61
860.609	12.26
860.905	12.39
861.202	14.67
861.499	14.06
861.795	15.04
862.092	12.32
862.388	10.19
862.684	12.25
862.981	10.33
863.277	13.81
863.573	12.67
863.869	14.83
864.165	13.49
864.461	13.96
864.757	17.14
865.053	17.2
865.349	16.31
865.645	18.61
865.94	13.89
866.236	16.16
866.532	14.35
866.827	18.28
867.123	16.53
867.418	19.83
867.713	21.15
868.009	17.95
868.304	18.22
868.599	17.71
868.894	15.2
869.189	16.35
869.484	16.97
869.779	16.58
870.074	13.37
870.369	14.43
870.663	13.39
870.958	12.04
871.252	13.81
871.547	11.28
871.842	13.97
872.136	16.08
872.43	15.77
872.725	14.4
873.019	15.13
873.313	16.26
873.607	14.51
873.901	13.03
874.195	13.69
874.489	13.42
874.783	15.56
875.077	11.35
875.37	9.36
875.664	8.92
875.958	8.27
876.251	6.07
876.545	5.07
876.838	2.04
877.132	1.56
877.425	2.2
877.718	0.73
878.011	0.73
878.305	3.95
878.598	6.1
878.891	5.94
879.184	8.09
879.476	14.17
879.769	14.38
880.062	15.85
880.355	17.45
880.647	15.49
880.94	16.81
881.232	16.04
881.525	17.42
881.817	16.4
882.11	16.84
882.402	14.94
882.694	12.08
882.986	11.46
883.278	12.6
883.57	12.69
883.862	13.12
884.154	13.12
884.446	13.64
884.738	13
885.03	13.37
885.321	13.44
885.613	13.49
885.904	13.52
886.196	13.63
886.487	13.79
886.779	13.84
887.07	13.89
887.361	13.35
887.652	13.09
887.943	13.08
888.234	13.28
888.525	12.93
888.816	13.71
889.107	14.47
889.398	15.74
889.689	15.89
889.979	16.64
890.27	16.29
890.56	18.31
890.851	18.85
891.141	19.84
891.432	19.8
891.722	22.73
