Data from groin1_Reflection__2__12-19-49-612.txt Node

Date: Thu Aug 04 12:19:49 AEST 2022
User: kathy
Spectrometer: JAZA2503
Trigger mode: 0
Integration Time (sec): 2.883200E-1
Scans to average: 10
Electric dark correction enabled: true
Nonlinearity correction enabled: true
Boxcar width: 5
XAxis mode: Wavelengths
Number of Pixels in Spectrum: 2048
>>>>>Begin Spectral Data<<<<<
189.467	-295.45
189.852	-678.74
190.237	-13926.52
190.622	-869.84
191.007	-292.71
191.392	-501.5
191.777	-758.05
192.162	18.57
192.546	-118.27
192.931	-409.71
193.316	-389.4
193.701	-661.37
194.086	426.51
194.47	236.24
194.855	462.6
195.24	8958.33
195.624	413.54
196.009	12.15
196.393	181.13
196.778	-652.76
197.163	-3.08
197.547	13.41
197.931	28.41
198.316	31.39
198.7	30.71
199.085	19.96
199.469	15.53
199.853	16.07
200.237	20.84
200.622	20.39
201.006	10.97
201.39	7
201.774	-1.06
202.158	-3.44
202.542	-4.56
202.926	-11.88
203.31	-18.34
203.694	-20.91
204.078	-22.22
204.462	-15.66
204.846	-12.71
205.23	-7.01
205.614	-7.34
205.998	-9.44
206.381	-8.67
206.765	-8.87
207.149	-3.44
207.532	4.16
207.916	8.7
208.3	15.14
208.683	11.27
209.067	8.91
209.45	11.72
209.834	12.17
210.217	17.27
210.601	22.18
210.984	21.52
211.367	21.49
211.751	21.99
212.134	20.35
212.517	11.27
212.901	12.17
213.284	15.87
213.667	18.33
214.05	22.12
214.433	17.81
214.816	16.16
215.199	18.24
215.582	17.08
215.965	12.85
216.348	12.99
216.731	17.26
217.114	14.19
217.497	9.76
217.88	7.59
218.262	3.57
218.645	7.6
219.028	5.89
219.411	3.68
219.793	3.72
220.176	7.34
220.559	6.15
220.941	3.96
221.324	4.72
221.706	5.36
222.089	3.24
222.471	3.57
222.853	1.55
223.236	2.91
223.618	0.93
224	1.29
224.383	-0.73
224.765	1.26
225.147	2.27
225.529	2.31
225.912	2.6
226.294	3.38
226.676	3.55
227.058	3.48
227.44	3.23
227.822	3.57
228.204	3.24
228.586	3.51
228.968	3.12
229.349	3.03
229.731	3.25
230.113	2.7
230.495	2.41
230.877	2.23
231.258	2.44
231.64	2.08
232.022	1.55
232.403	1.46
232.785	1.54
233.166	1.17
233.548	1.13
233.929	0.82
234.311	1.24
234.692	0.88
235.073	0.95
235.455	0.99
235.836	1.07
236.217	1.59
236.599	1.46
236.98	1.14
237.361	0.91
237.742	0.56
238.123	0.46
238.504	0.41
238.885	0.73
239.266	0.78
239.647	0.45
240.028	0.57
240.409	0.37
240.79	0.57
241.171	0.62
241.552	0.69
241.933	0.76
242.313	0.85
242.694	0.86
243.075	1.04
243.456	0.87
243.836	0.98
244.217	0.96
244.597	1.12
244.978	1.12
245.358	1.14
245.739	1.23
246.119	1.16
246.5	1.13
246.88	1.06
247.26	0.9
247.641	0.92
248.021	0.99
248.401	1
248.781	1.02
249.162	1.06
249.542	1.12
249.922	1.14
250.302	1.26
250.682	1.24
251.062	1.21
251.442	1.23
251.822	1.34
252.202	1.24
252.582	1.22
252.961	1.23
253.341	1.27
253.721	1.17
254.101	1.07
254.48	1.08
254.86	0.9
255.24	0.97
255.619	1.14
255.999	0.9
256.378	0.83
256.758	0.83
257.137	0.78
257.517	0.56
257.896	0.66
258.276	0.59
258.655	0.55
259.034	0.65
259.414	0.61
259.793	0.52
260.172	0.55
260.551	0.53
260.93	0.47
261.309	0.39
261.688	0.43
262.068	0.42
262.447	0.45
262.825	0.39
263.204	0.37
263.583	0.39
263.962	0.48
264.341	0.49
264.72	0.5
265.099	0.55
265.477	0.64
265.856	0.49
266.235	0.41
266.613	0.38
266.992	0.43
267.371	0.51
267.749	0.59
268.128	0.47
268.506	0.5
268.884	0.48
269.263	0.47
269.641	0.38
270.02	0.48
270.398	0.49
270.776	0.55
271.154	0.59
271.533	0.5
271.911	0.42
272.289	0.42
272.667	0.42
273.045	0.41
273.423	0.42
273.801	0.42
274.179	0.4
274.557	0.39
274.935	0.4
275.313	0.33
275.69	0.4
276.068	0.41
276.446	0.39
276.824	0.4
277.201	0.45
277.579	0.48
277.957	0.49
278.334	0.46
278.712	0.46
279.089	0.42
279.467	0.5
279.844	0.54
280.222	0.5
280.599	0.58
280.976	0.58
281.354	0.54
281.731	0.55
282.108	0.61
282.485	0.64
282.863	0.67
283.24	0.67
283.617	0.66
283.994	0.6
284.371	0.65
284.748	0.6
285.125	0.64
285.502	0.66
285.879	0.61
286.256	0.57
286.633	0.59
287.009	0.58
287.386	0.59
287.763	0.61
288.139	0.64
288.516	0.61
288.893	0.61
289.269	0.59
289.646	0.63
290.022	0.69
290.399	0.66
290.775	0.67
291.152	0.69
291.528	0.71
291.904	0.68
292.281	0.67
292.657	0.71
293.033	0.78
293.41	0.83
293.786	0.82
294.162	0.82
294.538	0.9
294.914	0.91
295.29	0.9
295.666	0.93
296.042	0.96
296.418	0.99
296.794	1.03
297.17	1.01
297.546	1.03
297.921	1.04
298.297	1.06
298.673	1.09
299.048	1.11
299.424	1.16
299.8	1.17
300.175	1.24
300.551	1.27
300.926	1.32
301.302	1.36
301.677	1.38
302.053	1.45
302.428	1.47
302.803	1.51
303.179	1.56
303.554	1.6
303.929	1.67
304.304	1.69
304.68	1.71
305.055	1.74
305.43	1.78
305.805	1.81
306.18	1.82
306.555	1.9
306.93	1.92
307.305	1.9
307.679	1.93
308.054	1.91
308.429	1.91
308.804	1.95
309.179	1.96
309.553	1.97
309.928	2
310.303	2.02
310.677	2.03
311.052	2.05
311.426	2.08
311.801	2.11
312.175	2.14
312.55	2.2
312.924	2.2
313.298	2.19
313.673	2.23
314.047	2.25
314.421	2.26
314.795	2.27
315.17	2.29
315.544	2.34
315.918	2.34
316.292	2.39
316.666	2.4
317.04	2.46
317.414	2.52
317.788	2.53
318.162	2.57
318.535	2.64
318.909	2.71
319.283	2.74
319.657	2.79
320.03	2.87
320.404	2.98
320.778	3.1
321.151	3.34
321.525	3.55
321.898	3.81
322.272	4.05
322.645	4.25
323.019	4.52
323.392	4.77
323.765	5.13
324.139	5.42
324.512	5.76
324.885	6.11
325.258	6.4
325.632	6.67
326.005	6.91
326.378	7.08
326.751	7.24
327.124	7.32
327.497	7.38
327.87	7.38
328.243	7.39
328.616	7.43
328.988	7.51
329.361	7.51
329.734	7.52
330.107	7.49
330.479	7.49
330.852	7.41
331.225	7.33
331.597	7.25
331.97	7.17
332.342	7.12
332.715	7.03
333.087	6.95
333.46	6.86
333.832	6.83
334.204	6.82
334.577	6.77
334.949	6.75
335.321	6.68
335.693	6.61
336.065	6.49
336.438	6.43
336.81	6.34
337.182	6.28
337.554	6.23
337.926	6.14
338.298	6.05
338.669	5.94
339.041	5.91
339.413	5.88
339.785	5.84
340.157	5.77
340.528	5.71
340.9	5.66
341.272	5.59
341.643	5.55
342.015	5.55
342.386	5.61
342.758	5.65
343.129	5.71
343.501	5.74
343.872	5.78
344.243	5.82
344.615	5.81
344.986	5.8
345.357	5.81
345.728	5.8
346.099	5.79
346.471	5.72
346.842	5.7
347.213	5.69
347.584	5.67
347.955	5.66
348.326	5.6
348.697	5.56
349.067	5.54
349.438	5.51
349.809	5.5
350.18	5.54
350.55	5.58
350.921	5.59
351.292	5.63
351.662	5.66
352.033	5.65
352.403	5.67
352.774	5.71
353.144	5.69
353.515	5.7
353.885	5.72
354.255	5.68
354.626	5.7
354.996	5.71
355.366	5.7
355.736	5.68
356.107	5.67
356.477	5.66
356.847	5.63
357.217	5.66
357.587	5.66
357.957	5.67
358.327	5.68
358.697	5.69
359.066	5.69
359.436	5.69
359.806	5.7
360.176	5.74
360.546	5.75
360.915	5.73
361.285	5.71
361.654	5.71
362.024	5.7
362.393	5.7
362.763	5.68
363.132	5.69
363.502	5.7
363.871	5.69
364.24	5.69
364.61	5.71
364.979	5.75
365.348	5.76
365.717	5.78
366.087	5.81
366.456	5.84
366.825	5.87
367.194	5.92
367.563	5.96
367.932	6
368.301	6.04
368.669	6.05
369.038	6.06
369.407	6.11
369.776	6.13
370.145	6.16
370.513	6.15
370.882	6.17
371.25	6.18
371.619	6.21
371.988	6.24
372.356	6.24
372.724	6.27
373.093	6.33
373.461	6.36
373.83	6.4
374.198	6.44
374.566	6.46
374.934	6.45
375.303	6.46
375.671	6.47
376.039	6.49
376.407	6.53
376.775	6.57
377.143	6.58
377.511	6.6
377.879	6.62
378.247	6.65
378.615	6.69
378.982	6.77
379.35	6.83
379.718	6.89
380.086	6.94
380.453	6.99
380.821	7.03
381.188	7.05
381.556	7.09
381.923	7.12
382.291	7.15
382.658	7.19
383.026	7.21
383.393	7.23
383.76	7.26
384.128	7.28
384.495	7.29
384.862	7.3
385.229	7.34
385.596	7.37
385.963	7.4
386.33	7.43
386.697	7.44
387.064	7.48
387.431	7.51
387.798	7.54
388.165	7.59
388.532	7.61
388.899	7.62
389.265	7.66
389.632	7.68
389.999	7.71
390.365	7.71
390.732	7.73
391.098	7.74
391.465	7.76
391.831	7.75
392.198	7.77
392.564	7.79
392.93	7.81
393.297	7.82
393.663	7.82
394.029	7.85
394.395	7.88
394.762	7.92
395.128	7.93
395.494	7.96
395.86	8
396.226	8.01
396.592	8.01
396.958	8.03
397.323	8.06
397.689	8.09
398.055	8.09
398.421	8.1
398.787	8.1
399.152	8.12
399.518	8.13
399.883	8.14
400.249	8.14
400.615	8.16
400.98	8.18
401.345	8.18
401.711	8.16
402.076	8.18
402.442	8.19
402.807	8.17
403.172	8.17
403.537	8.16
403.902	8.15
404.268	8.14
404.633	8.13
404.998	8.13
405.363	8.12
405.728	8.13
406.093	8.12
406.457	8.1
406.822	8.13
407.187	8.13
407.552	8.13
407.917	8.12
408.281	8.14
408.646	8.18
409.011	8.2
409.375	8.21
409.74	8.22
410.104	8.24
410.469	8.26
410.833	8.26
411.197	8.27
411.562	8.3
411.926	8.32
412.29	8.32
412.655	8.29
413.019	8.27
413.383	8.29
413.747	8.3
414.111	8.3
414.475	8.32
414.839	8.33
415.203	8.34
415.567	8.35
415.931	8.36
416.295	8.38
416.658	8.39
417.022	8.41
417.386	8.42
417.749	8.42
418.113	8.4
418.477	8.41
418.84	8.42
419.204	8.42
419.567	8.41
419.931	8.41
420.294	8.42
420.657	8.44
421.021	8.45
421.384	8.46
421.747	8.48
422.11	8.51
422.473	8.52
422.836	8.52
423.199	8.51
423.562	8.51
423.925	8.51
424.288	8.49
424.651	8.5
425.014	8.49
425.377	8.47
425.74	8.45
426.102	8.46
426.465	8.47
426.828	8.47
427.19	8.48
427.553	8.5
427.916	8.49
428.278	8.5
428.641	8.47
429.003	8.47
429.365	8.47
429.728	8.48
430.09	8.45
430.452	8.44
430.814	8.43
431.177	8.42
431.539	8.42
431.901	8.42
432.263	8.43
432.625	8.45
432.987	8.47
433.349	8.49
433.711	8.51
434.072	8.54
434.434	8.55
434.796	8.57
435.158	8.61
435.519	8.65
435.881	8.69
436.243	8.7
436.604	8.7
436.966	8.71
437.327	8.71
437.689	8.7
438.05	8.69
438.411	8.69
438.773	8.7
439.134	8.7
439.495	8.69
439.856	8.69
440.218	8.7
440.579	8.72
440.94	8.74
441.301	8.77
441.662	8.8
442.023	8.82
442.384	8.82
442.745	8.84
443.105	8.83
443.466	8.85
443.827	8.86
444.188	8.86
444.548	8.84
444.909	8.86
445.269	8.86
445.63	8.86
445.99	8.86
446.351	8.89
446.711	8.87
447.072	8.88
447.432	8.87
447.792	8.86
448.153	8.86
448.513	8.88
448.873	8.87
449.233	8.86
449.593	8.85
449.953	8.83
450.313	8.83
450.673	8.83
451.033	8.83
451.393	8.82
451.753	8.8
452.113	9.3
452.472	9.3
452.832	9.27
453.192	9.24
453.551	9.22
453.911	9.19
454.271	9.16
454.63	9.13
454.989	9.11
455.349	9.11
455.708	9.1
456.068	8.83
456.427	8.83
456.786	8.84
457.145	8.86
457.505	8.87
457.864	8.91
458.223	8.94
458.582	8.98
458.941	9.01
459.3	9.03
459.659	9.06
460.018	9.07
460.376	9.07
460.735	9.08
461.094	9.09
461.453	9.09
461.811	9.07
462.17	9.06
462.529	9.04
462.887	9.02
463.246	9.02
463.604	9.01
463.963	9.04
464.321	8.96
464.679	8.95
465.038	8.95
465.396	8.96
465.754	8.97
466.112	8.98
466.47	8.99
466.828	9.02
467.186	9.03
467.544	9.04
467.902	9.04
468.26	9.18
468.618	9.21
468.976	9.22
469.334	9.23
469.692	9.23
470.049	9.24
470.407	9.24
470.765	9.22
471.122	9.23
471.48	9.23
471.837	9.24
472.195	9.24
472.552	9.26
472.909	9.28
473.267	9.3
473.624	9.33
473.981	9.33
474.338	9.34
474.696	9.37
475.053	9.38
475.41	9.41
475.767	9.41
476.124	9.41
476.481	9.42
476.838	9.43
477.194	9.43
477.551	9.44
477.908	9.47
478.265	9.48
478.621	9.49
478.978	9.51
479.335	9.51
479.691	9.53
480.048	9.56
480.404	9.58
480.761	9.6
481.117	9.62
481.473	9.63
481.83	9.64
482.186	9.65
482.542	9.66
482.898	9.67
483.255	9.71
483.611	9.73
483.967	9.75
484.323	9.77
484.679	9.79
485.035	9.8
485.39	9.82
485.746	9.83
486.102	9.84
486.458	9.87
486.814	9.89
487.169	9.89
487.525	9.88
487.88	9.9
488.236	9.9
488.591	9.9
488.947	9.9
489.302	9.91
489.658	9.93
490.013	9.94
490.368	9.93
490.723	9.93
491.079	9.93
491.434	9.94
491.789	9.94
492.144	9.94
492.499	9.95
492.854	9.97
493.209	9.97
493.564	9.97
493.919	9.99
494.273	10
494.628	10.01
494.983	10.01
495.338	10.02
495.692	10.03
496.047	10.04
496.401	10.05
496.756	10.04
497.11	10.04
497.465	10.02
497.819	10
498.173	10.01
498.528	10.01
498.882	10.02
499.236	10.03
499.59	10.03
499.944	10.05
500.298	10.06
500.652	10.07
501.006	10.09
501.36	10.11
501.714	10.11
502.068	10.11
502.422	10.13
502.776	10.14
503.129	10.15
503.483	10.17
503.837	10.17
504.19	10.18
504.544	10.2
504.897	10.19
505.251	10.19
505.604	10.17
505.958	10.17
506.311	10.14
506.664	10.11
507.017	10.08
507.371	10.05
507.724	10.03
508.077	10
508.43	9.97
508.783	9.96
509.136	9.95
509.489	9.96
509.842	9.96
510.195	9.95
510.547	9.95
510.9	9.94
511.253	9.92
511.606	9.89
511.958	9.86
512.311	9.85
512.663	9.81
513.016	9.78
513.368	9.75
513.721	9.72
514.073	9.71
514.425	9.71
514.778	9.7
515.13	9.71
515.482	9.69
515.834	9.69
516.186	9.68
516.538	9.69
516.89	9.71
517.242	9.72
517.594	9.73
517.946	9.72
518.298	9.72
518.65	9.71
519.001	9.69
519.353	9.69
519.705	9.69
520.056	9.67
520.408	9.62
520.759	9.6
521.111	9.57
521.462	9.56
521.814	9.56
522.165	9.54
522.516	9.55
522.868	9.55
523.219	9.54
523.57	9.53
523.921	9.52
524.272	9.51
524.623	9.49
524.974	9.46
525.325	9.43
525.676	9.39
526.027	9.35
526.378	9.32
526.728	9.31
527.079	9.28
527.43	9.26
527.78	9.24
528.131	9.23
528.481	9.2
528.832	9.21
529.182	9.2
529.533	9.2
529.883	9.21
530.233	9.2
530.584	9.18
530.934	9.19
531.284	9.18
531.634	9.16
531.984	9.14
532.334	9.14
532.684	9.11
533.034	9.11
533.384	9.1
533.734	9.1
534.084	9.08
534.434	9.06
534.783	9.06
535.133	9.04
535.483	9.04
535.832	9.04
536.182	9
536.531	8.99
536.881	8.94
537.23	8.91
537.58	8.85
537.929	8.82
538.278	10.24
538.628	10.22
538.977	10.19
539.326	10.16
539.675	10.13
540.024	10.12
540.373	10.1
540.722	10.08
541.071	10.08
541.42	10.09
541.769	10.09
542.117	8.64
542.466	8.61
542.815	8.6
543.163	8.59
543.512	8.58
543.861	8.57
544.209	8.57
544.558	8.58
544.906	8.55
545.254	8.54
545.603	8.52
545.951	8.52
546.299	8.54
546.647	8.56
546.996	8.57
547.344	8.56
547.692	8.56
548.04	8.57
548.388	8.55
548.736	8.55
549.083	8.54
549.431	8.53
549.779	8.53
550.127	8.49
550.475	8.45
550.822	8.41
551.17	8.38
551.517	8.37
551.865	8.32
552.212	8.3
552.56	8.3
552.907	8.28
553.254	8.26
553.602	8.23
553.949	8.2
554.296	8.18
554.643	8.16
554.99	8.15
555.337	8.12
555.684	8.11
556.031	8.08
556.378	8.04
556.725	8.05
557.072	8.01
557.419	8.02
557.765	8.02
558.112	8.02
558.459	8.03
558.805	8.02
559.152	8.02
559.498	8
559.845	8
560.191	7.99
560.538	7.96
560.884	7.94
561.23	7.9
561.576	7.87
561.923	7.8
562.269	7.74
562.615	7.72
562.961	7.69
563.307	7.7
563.653	7.7
563.999	7.68
564.344	7.65
564.69	7.66
565.036	7.68
565.382	7.67
565.727	7.66
566.073	7.66
566.419	7.64
566.764	7.62
567.11	7.58
567.455	7.53
567.8	7.52
568.146	7.5
568.491	7.48
568.836	7.43
569.181	7.43
569.527	7.44
569.872	7.44
570.217	7.41
570.562	7.4
570.907	7.42
571.252	7.44
571.597	7.44
571.941	7.41
572.286	7.39
572.631	7.37
572.976	7.36
573.32	7.34
573.665	7.31
574.009	7.28
574.354	7.27
574.698	7.25
575.043	7.25
575.387	7.23
575.731	7.22
576.076	7.22
576.42	7.21
576.764	7.16
577.108	7.14
577.452	7.11
577.796	7.11
578.14	7.07
578.484	7.04
578.828	7.04
579.172	7.04
579.516	7.01
579.86	7
580.203	7
580.547	6.99
580.891	6.98
581.234	6.97
581.578	6.97
581.921	6.96
582.264	6.95
582.608	6.93
582.951	6.92
583.294	6.91
583.638	6.91
583.981	6.91
584.324	6.91
584.667	6.92
585.01	6.91
585.353	6.9
585.696	6.91
586.039	6.92
586.382	6.93
586.725	6.94
587.067	6.94
587.41	6.94
587.753	6.95
588.095	6.95
588.438	6.94
588.781	6.94
589.123	6.93
589.465	6.92
589.808	6.93
590.15	6.94
590.492	6.93
590.835	6.92
591.177	6.91
591.519	6.87
591.861	6.87
592.203	6.87
592.545	6.85
592.887	6.84
593.229	6.83
593.571	6.8
593.913	6.79
594.254	6.77
594.596	6.77
594.938	6.77
595.279	6.77
595.621	6.76
595.963	6.77
596.304	6.77
596.645	6.78
596.987	6.78
597.328	6.73
597.669	6.72
598.011	6.73
598.352	6.74
598.693	6.74
599.034	6.74
599.375	6.73
599.716	6.72
600.057	6.72
600.398	6.72
600.739	6.72
601.08	6.72
601.42	6.72
601.761	6.72
602.102	6.7
602.442	6.69
602.783	6.67
603.123	6.65
603.464	6.65
603.804	6.64
604.145	6.63
604.485	6.59
604.825	6.57
605.166	6.57
605.506	6.57
605.846	6.57
606.186	6.56
606.526	6.56
606.866	6.56
607.206	6.56
607.546	6.55
607.886	6.55
608.225	6.52
608.565	6.51
608.905	6.49
609.245	6.47
609.584	6.46
609.924	6.44
610.263	6.44
610.603	6.44
610.942	6.43
611.281	6.42
611.621	6.41
611.96	6.39
612.299	6.4
612.638	6.4
612.978	6.37
613.317	6.36
613.656	6.34
613.995	6.33
614.334	6.29
614.672	6.28
615.011	6.28
615.35	6.28
615.689	6.3
616.027	6.32
616.366	6.27
616.705	6.27
617.043	6.27
617.382	6.27
617.72	6.24
618.059	6.22
618.397	6.22
618.735	6.19
619.073	6.19
619.412	6.21
619.75	6.2
620.088	6.19
620.426	6.19
620.764	6.18
621.102	6.16
621.44	6.16
621.778	6.17
622.115	6.17
622.453	6.15
622.791	6.13
623.129	6.11
623.466	6.08
623.804	6.08
624.141	6.1
624.479	6.08
624.816	6.07
625.153	6.09
625.491	6.09
625.828	6.09
626.165	6.09
626.502	6.08
626.84	6.07
627.177	6.08
627.514	6.07
627.851	6.07
628.188	6.03
628.524	6.01
628.861	6.03
629.198	5.99
629.535	6.01
629.871	5.97
630.208	5.97
630.545	6
630.881	5.97
631.218	5.98
631.554	5.97
631.89	5.96
632.227	5.95
632.563	5.95
632.899	5.92
633.235	5.9
633.572	5.89
633.908	5.85
634.244	5.82
634.58	5.79
634.916	5.8
635.251	5.78
635.587	5.78
635.923	5.78
636.259	5.76
636.595	5.78
636.93	5.75
637.266	5.73
637.601	5.71
637.937	5.66
638.272	5.71
638.608	5.66
638.943	5.64
639.278	5.63
639.613	5.6
639.949	5.57
640.284	5.55
640.619	5.55
640.954	5.57
641.289	5.59
641.624	5.59
641.959	5.52
642.294	5.49
642.628	5.47
642.963	5.47
643.298	5.47
643.632	5.54
643.967	5.56
644.302	5.54
644.636	5.49
644.971	5.47
645.305	5.44
645.639	5.5
645.974	5.49
646.308	5.52
646.642	5.52
646.976	5.53
647.31	5.47
647.644	5.4
647.978	5.4
648.312	5.38
648.646	5.38
648.98	5.4
649.314	5.31
649.647	5.25
649.981	5.2
650.315	5.15
650.648	5.09
650.982	5.07
651.315	5.07
651.649	5.06
651.982	5.08
652.316	5.07
652.649	5.04
652.982	5.07
653.315	5.1
653.648	5.14
653.982	5.15
654.315	5.1
654.648	5.09
654.981	5.08
655.313	5.11
655.646	5.06
655.979	5.05
656.312	5.04
656.644	5.01
656.977	4.99
657.31	4.93
657.642	4.9
657.975	4.95
658.307	4.98
658.64	4.99
658.972	4.94
659.304	4.94
659.636	4.91
659.969	4.88
660.301	4.9
660.633	4.91
660.965	4.92
661.297	4.92
661.629	4.93
661.961	4.89
662.292	4.85
662.624	4.86
662.956	4.87
663.288	4.94
663.619	4.93
663.951	4.92
664.282	4.94
664.614	4.91
664.945	4.92
665.276	4.84
665.608	4.81
665.939	4.8
666.27	4.78
666.601	4.76
666.933	4.68
667.264	4.73
667.595	4.73
667.926	4.76
668.256	4.71
668.587	4.68
668.918	4.75
669.249	4.76
669.58	4.75
669.91	4.68
670.241	4.73
670.571	4.78
670.902	4.77
671.232	4.65
671.563	4.59
671.893	4.58
672.223	4.52
672.554	4.48
672.884	4.51
673.214	4.53
673.544	4.61
673.874	4.55
674.204	4.55
674.534	4.5
674.864	4.57
675.194	4.59
675.524	4.64
675.853	4.73
676.183	4.69
676.513	4.69
676.842	4.7
677.172	4.65
677.501	4.68
677.831	4.66
678.16	4.7
678.489	4.74
678.819	4.73
679.148	4.67
679.477	4.62
679.806	4.63
680.135	4.53
680.464	4.46
680.793	4.47
681.122	4.43
681.451	4.3
681.78	4.23
682.108	4.18
682.437	4.08
682.766	4.08
683.094	4.08
683.423	4.03
683.751	4.05
684.08	4.03
684.408	3.95
684.737	3.99
685.065	4.07
685.393	4.07
685.721	4.1
686.049	4.16
686.377	4.19
686.705	4.17
687.033	4.25
687.361	4.28
687.689	4.34
688.017	4.42
688.345	4.43
688.673	4.45
689.0	4.45
689.328	4.45
689.655	4.49
689.983	4.54
690.31	4.58
690.638	4.46
690.965	4.39
691.292	4.31
691.62	4.32
691.947	4.28
692.274	4.23
692.601	4.23
692.928	4.23
693.255	4.15
693.582	4.05
693.909	4.01
694.236	4.14
694.562	4.2
694.889	4.29
695.216	4.31
695.542	4.35
695.869	4.31
696.196	4.35
696.522	4.29
696.848	4.32
697.175	4.35
697.501	4.4
697.827	4.32
698.154	4.36
698.48	4.36
698.806	4.31
699.132	4.26
699.458	4.33
699.784	4.29
700.11	4.25
700.435	4.27
700.761	4.28
701.087	4.21
701.413	4.24
701.738	4.16
702.064	4.09
702.389	4.04
702.715	4.05
703.04	4.01
703.366	3.92
703.691	4.01
704.016	3.98
704.341	3.94
704.666	3.9
704.992	3.83
705.317	3.91
705.642	3.93
705.967	3.93
706.291	3.95
706.616	4.03
706.941	4.19
707.266	4.09
707.59	4.2
707.915	4.25
708.24	4.15
708.564	4.19
708.889	4.14
709.213	4.13
709.537	4.16
709.862	4.18
710.186	4.06
710.51	4.03
710.834	4.13
711.158	4.09
711.482	3.94
711.806	4.03
712.13	4.06
712.454	3.96
712.778	4.08
713.102	4.05
713.426	4.02
713.749	4
714.073	4.04
714.396	3.99
714.72	3.8
715.043	3.97
715.367	4
715.69	4.07
716.013	4.15
716.337	4.04
716.66	4.1
716.983	4.2
717.306	4.3
717.629	4.17
717.952	4.17
718.275	4.2
718.598	4.05
718.921	4.12
719.243	4.14
719.566	4.22
719.889	4.33
720.211	4.19
720.534	4.04
720.856	3.85
721.179	3.94
721.501	3.9
721.823	3.81
722.146	3.88
722.468	3.85
722.79	3.65
723.112	3.52
723.434	3.52
723.756	3.53
724.078	3.57
724.4	3.63
724.722	3.58
725.044	3.45
725.366	3.48
725.687	3.48
726.009	3.48
726.33	3.56
726.652	3.67
726.973	3.39
727.295	3.37
727.616	3.34
727.938	3.46
728.259	3.51
728.58	3.71
728.901	3.82
729.222	3.85
729.543	3.78
729.864	3.71
730.185	3.45
730.506	3.52
730.827	3.51
731.148	3.52
731.468	3.47
731.789	3.48
732.11	3.36
732.43	3.35
732.751	3.42
733.071	3.46
733.392	3.6
733.712	3.85
734.032	3.94
734.352	4.13
734.673	4.17
734.993	4.08
735.313	3.98
735.633	4.39
735.953	4.4
736.273	4.38
736.593	4.37
736.912	4.34
737.232	4.34
737.552	4.32
737.871	4.2
738.191	4.17
738.51	4.39
738.83	4.57
739.149	4.33
739.469	4.51
739.788	4.38
740.107	4.37
740.426	4.4
740.746	4.4
741.065	4.23
741.384	4.15
741.703	4.18
742.022	4.1
742.341	4.02
742.659	3.87
742.978	3.57
743.297	3.75
743.615	3.67
743.934	3.64
744.253	3.59
744.571	3.93
744.89	4.18
745.208	4.23
745.526	4.23
745.845	3.89
746.163	3.79
746.481	4.1
746.799	4.1
747.117	4.26
747.435	4.48
747.753	4.58
748.071	4.48
748.389	4.36
748.706	4.27
749.024	4.32
749.342	4.68
749.659	4.87
749.977	4.51
750.295	4.62
750.612	4.52
750.929	4.43
751.247	4.53
751.564	4.57
751.881	4.52
752.198	4.79
752.516	4.93
752.833	4.81
753.15	4.63
753.467	4.66
753.783	4.26
754.1	4.45
754.417	4.27
754.734	4.13
755.05	4.35
755.367	4.47
755.684	4.21
756.0	4.11
756.317	4.2
756.633	4.29
756.949	4.54
757.266	4.91
757.582	4.76
757.898	4.71
758.214	4.74
758.53	4.47
758.846	4.27
759.162	4.12
759.478	3.72
759.794	3.69
760.11	3.5
760.426	3.23
760.741	3.23
761.057	3.08
761.372	3
761.688	2.95
762.003	2.87
762.319	2.93
762.634	3.08
762.949	3.11
763.265	3.2
763.58	3.2
763.895	3.21
764.21	3.17
764.525	3.15
764.84	3.02
765.155	3.02
765.47	3.21
765.785	3.19
766.099	3.26
766.414	3.39
766.729	3.17
767.043	3.49
767.358	3.59
767.672	3.37
767.987	3.39
768.301	3.73
768.615	3.82
768.929	3.44
769.244	3.43
769.558	3.72
769.872	3.57
770.186	3.61
770.5	3.54
770.814	3.35
771.127	3.61
771.441	3.57
771.755	3.58
772.069	3.34
772.382	3.24
772.696	3.14
773.009	2.56
773.323	2.71
773.636	2.63
773.95	2.56
774.263	3.12
774.576	2.74
774.889	3.09
775.202	3.3
775.515	3.8
775.828	3.75
776.141	4.05
776.454	4.1
776.767	4.27
777.08	4.23
777.393	3.94
777.705	3.29
778.018	3.07
778.33	2.99
778.643	2.9
778.955	2.36
779.268	2.71
779.58	2.98
779.892	3.39
780.205	3.25
780.517	3.48
780.829	3.91
781.141	4.65
781.453	5.03
781.765	5.03
782.077	4.51
782.388	4.72
782.7	4.86
783.012	4.86
783.324	4.62
783.635	4.66
783.947	4.93
784.258	4.3
784.57	3.62
784.881	3.56
785.192	2.84
785.504	3.27
785.815	2.84
786.126	3.06
786.437	2.96
786.748	2.44
787.059	2.26
787.37	1.78
787.681	2.23
787.992	2.77
788.302	3.42
788.613	4.27
788.924	4.05
789.234	5.23
789.545	5.12
789.855	4.97
790.166	4.99
790.476	5.34
790.786	5.48
791.096	5.77
791.407	5.8
791.717	5.28
792.027	5.21
792.337	4.98
792.647	4.23
792.957	4.41
793.266	4.36
793.576	4.63
793.886	4.23
794.196	3.99
794.505	8.05
794.815	7.85
795.124	8.27
795.434	8.23
795.743	7.72
796.052	7.53
796.362	7.28
796.671	7.06
796.98	7.45
797.289	7.39
797.598	7.79
797.907	3.56
798.216	3.76
798.525	3.92
798.834	3.49
799.142	4.38
799.451	4.68
799.76	4.89
800.068	5.1
800.377	5.11
800.685	5.7
800.994	5.64
801.302	5.6
801.61	5.38
801.918	4.64
802.227	4.93
802.535	5.09
802.843	4.74
803.151	4.32
803.459	4.41
803.767	3.86
804.074	3
804.382	2.84
804.69	4.62
804.998	4.32
805.305	4.69
805.613	5.13
805.92	5.18
806.228	5.47
806.535	5.03
806.842	4.78
807.15	5.35
807.457	5.89
807.764	5.93
808.071	4.04
808.378	4.34
808.685	4.21
808.992	3.6
809.299	3.51
809.605	3.46
809.912	4.67
810.219	4.78
810.525	4.62
810.832	4.39
811.138	4.68
811.445	4.7
811.751	4.24
812.058	3.74
812.364	4.1
812.67	3.88
812.976	3.23
813.282	1.94
813.588	1.95
813.894	2.09
814.2	1.99
814.506	2.27
814.812	1.97
815.118	2.89
815.423	3.42
815.729	3.7
816.035	3.58
816.34	4.3
816.646	5.44
816.951	5.61
817.256	5.39
817.562	5.72
817.867	5.21
818.172	5.4
818.477	4.8
818.782	4.92
819.087	5.06
819.392	4.85
819.697	4.22
820.002	3.39
820.306	2.92
820.611	2.82
820.916	2.39
821.22	2.7
821.525	2.58
821.829	3.09
822.134	3.18
822.438	2.95
822.742	3.17
823.047	3.41
823.351	3.52
823.655	3.67
823.959	3.58
824.263	3.63
824.567	3.65
824.871	3.84
825.174	3.85
825.478	5.21
825.782	5.38
826.086	5.46
826.389	5.71
826.693	5.95
826.996	5.97
827.3	6.25
827.603	6.44
827.906	6.44
828.209	6.76
828.513	6.84
828.816	5
829.119	4.9
829.422	4.76
829.725	4.41
830.028	4.1
830.33	3.76
830.633	3.68
830.936	3.42
831.238	3.31
831.541	2.61
831.844	2.46
832.146	2.66
832.448	2.83
832.751	2.95
833.053	3.67
833.355	4.92
833.657	5.28
833.96	5.29
834.262	5.65
834.564	6.16
834.865	6.14
835.167	7.65
835.469	8.05
835.771	7.54
836.073	7.22
836.374	6.09
836.676	4.87
836.977	5.06
837.279	5.18
837.58	5.46
837.882	5.13
838.183	5.76
838.484	3.13
838.785	2.83
839.086	3.25
839.387	3.87
839.688	5.18
839.989	5.61
840.29	5.16
840.591	5.57
840.892	5.23
841.192	5.64
841.493	5.01
841.794	6.75
842.094	7.03
842.394	7.02
842.695	7.02
842.995	7.02
843.295	7.02
843.596	7.02
843.896	7.02
844.196	7.02
844.496	7.02
844.796	7.02
845.096	7.02
845.396	7.02
845.695	7.02
845.995	4.24
846.295	6.76
846.594	7
846.894	8.31
847.194	7.73
847.493	7.68
847.792	7.98
848.092	7.05
848.391	5.01
848.69	8.38
848.989	7.7
849.288	4.98
849.587	5.33
849.886	4.77
850.185	4.08
850.484	6.45
850.783	7.28
851.081	7.97
851.38	10.09
851.679	10.97
851.977	9.98
852.276	11.23
852.574	13.08
852.872	12.56
853.171	11.9
853.469	12.39
853.767	11.45
854.065	10.04
854.363	8.17
854.661	8.69
854.959	10.08
855.257	8.31
855.555	7.92
855.853	7.77
856.15	8.98
856.448	11.95
856.746	11.41
857.043	11.78
857.341	15.43
857.638	21.37
857.935	20.6
858.233	18.59
858.53	19.25
858.827	20.04
859.124	19.7
859.421	18.91
859.718	18.49
860.015	17.93
860.312	15.53
860.609	11.04
860.905	6.31
861.202	5.06
861.499	5.42
861.795	8.39
862.092	7.2
862.388	4.99
862.684	5.13
862.981	5.49
863.277	3.66
863.573	5.8
863.869	7.54
864.165	5.78
864.461	6.56
864.757	5.76
865.053	2.59
865.349	1.81
865.645	2.38
865.94	3.72
866.236	0.61
866.532	3.38
866.827	4.29
867.123	4.14
867.418	5.42
867.713	2.68
868.009	2.89
868.304	5.4
868.599	5.83
868.894	5.04
869.189	3.95
869.484	6.33
869.779	4.51
870.074	4.45
870.369	5.7
870.663	7
870.958	8.87
871.252	9.13
871.547	6.9
871.842	6.53
872.136	5.45
872.43	4.85
872.725	4.7
873.019	4.45
873.313	3.75
873.607	2.33
873.901	0.46
874.195	1.6
874.489	4.5
874.783	5.66
875.077	6.32
875.37	11.79
875.664	13.2
875.958	14.1
876.251	13.51
876.545	12.83
876.838	12.49
877.132	14.36
877.425	12.39
877.718	10.9
878.011	10.38
878.305	10.83
878.598	7.29
878.891	4.36
879.184	3.83
879.476	6.89
879.769	5.47
880.062	6.05
880.355	3.15
880.647	4.72
880.94	3.32
881.232	2.28
881.525	2.28
881.817	2.28
882.11	0.46
882.402	0.46
882.694	0.46
882.986	0.46
883.278	0.46
883.57	0.19
883.862	1.03
884.154	1.82
884.446	2.08
884.738	3.07
885.03	4.01
885.321	3.63
885.613	3.69
885.904	3.99
886.196	4.21
886.487	4.63
886.779	4.33
887.07	3.87
887.361	3.42
887.652	3.82
887.943	3.27
888.234	3.3
888.525	2.4
888.816	2.29
889.107	3.55
889.398	4.43
889.689	3.66
889.979	3.78
890.27	4.49
890.56	5.55
890.851	5.35
891.141	6.67
891.432	6.23
891.722	10.71
