Data from thigh1_Reflection__0__15-23-38-793.txt Node

Date: Thu Aug 04 15:23:38 AEST 2022
User: kathy
Spectrometer: JAZA2503
Trigger mode: 0
Integration Time (sec): 2.439700E-1
Scans to average: 10
Electric dark correction enabled: true
Nonlinearity correction enabled: true
Boxcar width: 5
XAxis mode: Wavelengths
Number of Pixels in Spectrum: 2048
>>>>>Begin Spectral Data<<<<<
189.467	737.05
189.852	396.96
190.237	345.22
190.622	420.38
191.007	532.64
191.392	216.73
191.777	112.78
192.162	24.1
192.546	-94.57
192.931	-590.59
193.316	322.01
193.701	769.69
194.086	241.1
194.47	262.43
194.855	-9415.24
195.24	-1266.4
195.624	379.23
196.009	184.62
196.393	173.13
196.778	266.23
197.163	110.98
197.547	101.45
197.931	83.2
198.316	68.01
198.7	52.2
199.085	44.95
199.469	49.2
199.853	44.34
200.237	44.52
200.622	46.6
201.006	50.62
201.39	50.57
201.774	48.76
202.158	50.76
202.542	59.38
202.926	48.36
203.31	50.57
203.694	49.38
204.078	50.56
204.462	55.47
204.846	47.67
205.23	43.67
205.614	42.89
205.998	41.16
206.381	35.92
206.765	30.72
207.149	32.08
207.532	29.07
207.916	29.21
208.3	22.08
208.683	14.74
209.067	16.59
209.45	11.02
209.834	9.36
210.217	13.98
210.601	9.97
210.984	13.69
211.367	19.47
211.751	18.79
212.134	15.71
212.517	21.37
212.901	20.27
213.284	15.29
213.667	17.06
214.05	20.31
214.433	16.93
214.816	21.3
215.199	18.05
215.582	12.62
215.965	9.54
216.348	13.66
216.731	10.06
217.114	8.18
217.497	6.13
217.88	5.27
218.262	-1.62
218.645	0.08
219.028	-1.24
219.411	1.38
219.793	6.09
220.176	5.49
220.559	4.13
220.941	4.63
221.324	9.8
221.706	15.19
222.089	17.94
222.471	18.2
222.853	16.47
223.236	16.25
223.618	13.89
224	12.49
224.383	13.24
224.765	12.94
225.147	13.18
225.529	10.31
225.912	7.62
226.294	4.76
226.676	4.12
227.058	3.44
227.44	2.87
227.822	3.37
228.204	3.98
228.586	3.28
228.968	2.81
229.349	2.43
229.731	2.93
230.113	2.52
230.495	2.64
230.877	2.66
231.258	3.26
231.64	3.03
232.022	2.95
232.403	2.82
232.785	3.29
233.166	3.37
233.548	3.23
233.929	3.09
234.311	4.08
234.692	4.34
235.073	4.27
235.455	3.69
235.836	4.34
236.217	4.15
236.599	3.68
236.98	3.62
237.361	3.64
237.742	3.54
238.123	3.45
238.504	3.03
238.885	3.12
239.266	3.17
239.647	2.69
240.028	2.55
240.409	2.31
240.79	2.52
241.171	2.57
241.552	2.61
241.933	2.6
242.313	2.79
242.694	2.93
243.075	2.97
243.456	2.95
243.836	3.16
244.217	3.32
244.597	3.46
244.978	3.48
245.358	3.53
245.739	3.43
246.119	3.43
246.5	3.35
246.88	3.12
247.26	3.03
247.641	2.89
248.021	2.83
248.401	2.68
248.781	2.66
249.162	2.64
249.542	2.61
249.922	2.54
250.302	2.68
250.682	2.57
251.062	2.68
251.442	2.6
251.822	2.71
252.202	2.71
252.582	2.57
252.961	2.64
253.341	2.64
253.721	2.56
254.101	2.65
254.48	2.48
254.86	2.43
255.24	2.55
255.619	2.59
255.999	2.61
256.378	2.52
256.758	2.61
257.137	2.4
257.517	2.21
257.896	2.01
258.276	2.01
258.655	1.79
259.034	1.7
259.414	1.52
259.793	1.47
260.172	1.34
260.551	1.3
260.93	1.21
261.309	1.23
261.688	1.2
262.068	1.2
262.447	1.16
262.825	1.26
263.204	1.17
263.583	1.19
263.962	1.15
264.341	1.25
264.72	1.28
265.099	1.52
265.477	1.55
265.856	1.6
266.235	1.56
266.613	1.56
266.992	1.52
267.371	1.67
267.749	1.67
268.128	1.59
268.506	1.63
268.884	1.74
269.263	1.63
269.641	1.52
270.02	1.5
270.398	1.53
270.776	1.52
271.154	1.56
271.533	1.61
271.911	1.61
272.289	1.72
272.667	1.62
273.045	1.54
273.423	1.5
273.801	1.54
274.179	1.5
274.557	1.51
274.935	1.48
275.313	1.47
275.69	1.44
276.068	1.41
276.446	1.33
276.824	1.33
277.201	1.25
277.579	1.29
277.957	1.26
278.334	1.24
278.712	1.21
279.089	1.16
279.467	1.05
279.844	1
280.222	0.95
280.599	0.96
280.976	1.05
281.354	1.12
281.731	1.1
282.108	1.17
282.485	1.23
282.863	1.27
283.24	1.36
283.617	1.44
283.994	1.47
284.371	1.52
284.748	1.56
285.125	1.54
285.502	1.59
285.879	1.61
286.256	1.62
286.633	1.7
287.009	1.8
287.386	1.84
287.763	1.89
288.139	1.89
288.516	1.96
288.893	2
289.269	2.06
289.646	2.09
290.022	2.1
290.399	2.12
290.775	2.12
291.152	2.14
291.528	2.16
291.904	2.2
292.281	2.28
292.657	2.33
293.033	2.38
293.41	2.46
293.786	2.55
294.162	2.68
294.538	2.74
294.914	2.85
295.29	2.92
295.666	3.03
296.042	3.15
296.418	3.28
296.794	3.33
297.17	3.46
297.546	3.55
297.921	3.65
298.297	3.75
298.673	3.86
299.048	3.95
299.424	4.06
299.8	4.16
300.175	4.26
300.551	4.36
300.926	4.51
301.302	4.6
301.677	4.7
302.053	4.82
302.428	4.95
302.803	5.06
303.179	5.23
303.554	5.31
303.929	5.43
304.304	5.51
304.68	5.6
305.055	5.7
305.43	5.76
305.805	5.84
306.18	5.89
306.555	5.95
306.93	6.03
307.305	6.03
307.679	6.08
308.054	6.1
308.429	6.11
308.804	6.13
309.179	6.16
309.553	6.22
309.928	6.26
310.303	6.3
310.677	6.31
311.052	6.32
311.426	6.37
311.801	6.42
312.175	6.46
312.55	6.52
312.924	6.58
313.298	6.62
313.673	6.64
314.047	6.68
314.421	6.7
314.795	6.77
315.17	6.83
315.544	6.87
315.918	6.89
316.292	6.97
316.666	7.05
317.04	7.13
317.414	7.23
317.788	7.33
318.162	7.43
318.535	7.63
318.909	7.75
319.283	7.9
319.657	8.02
320.03	8.26
320.404	8.42
320.778	8.74
321.151	9.11
321.525	9.53
321.898	10
322.272	10.41
322.645	10.9
323.019	11.46
323.392	12.13
323.765	12.85
324.139	13.61
324.512	14.47
324.885	15.32
325.258	16.14
325.632	16.74
326.005	17.28
326.378	17.67
326.751	17.96
327.124	18.13
327.497	18.25
327.87	18.35
328.243	18.38
328.616	18.46
328.988	18.48
329.361	18.43
329.734	18.33
330.107	18.26
330.479	18.15
330.852	17.97
331.225	17.91
331.597	17.78
331.97	17.57
332.342	17.39
332.715	17.17
333.087	16.97
333.46	16.78
333.832	16.67
334.204	16.64
334.577	16.56
334.949	16.53
335.321	16.47
335.693	16.33
336.065	16.17
336.438	16.01
336.81	15.88
337.182	15.75
337.554	15.54
337.926	15.37
338.298	15.19
338.669	14.99
339.041	14.81
339.413	14.7
339.785	14.62
340.157	14.51
340.528	14.44
340.9	14.32
341.272	14.2
341.643	14.15
342.015	14.11
342.386	14.14
342.758	14.24
343.129	14.36
343.501	14.39
343.872	14.39
344.243	14.4
344.615	14.32
344.986	14.2
345.357	14.12
345.728	14.08
346.099	14.02
346.471	13.98
346.842	13.98
347.213	13.97
347.584	13.98
347.955	13.92
348.326	13.85
348.697	13.77
349.067	13.71
349.438	13.7
349.809	13.7
350.18	13.81
350.55	13.82
350.921	13.87
351.292	13.96
351.662	14.03
352.033	14.02
352.403	14.02
352.774	14.05
353.144	14.07
353.515	14.08
353.885	14.09
354.255	14.04
354.626	14
354.996	13.95
355.366	13.88
355.736	13.85
356.107	13.83
356.477	13.84
356.847	13.82
357.217	13.8
357.587	13.8
357.957	13.8
358.327	13.83
358.697	13.85
359.066	13.89
359.436	13.91
359.806	13.91
360.176	13.95
360.546	13.96
360.915	13.98
361.285	14.03
361.654	14.02
362.024	14
362.393	14
362.763	14.03
363.132	14.02
363.502	14.03
363.871	14.04
364.24	14.03
364.61	14.04
364.979	14.04
365.348	14.05
365.717	14.08
366.087	14.15
366.456	14.16
366.825	14.19
367.194	14.23
367.563	14.29
367.932	14.31
368.301	14.34
368.669	14.39
369.038	14.42
369.407	14.41
369.776	14.43
370.145	14.43
370.513	14.43
370.882	14.47
371.25	14.47
371.619	14.45
371.988	14.48
372.356	14.5
372.724	14.53
373.093	14.54
373.461	14.58
373.83	14.6
374.198	14.62
374.566	14.65
374.934	14.66
375.303	14.7
375.671	14.76
376.039	14.78
376.407	14.81
376.775	14.81
377.143	14.89
377.511	14.92
377.879	14.96
378.247	15.02
378.615	15.08
378.982	15.12
379.35	15.13
379.718	15.17
380.086	15.24
380.453	15.32
380.821	15.38
381.188	15.37
381.556	15.41
381.923	15.44
382.291	15.48
382.658	15.5
383.026	15.55
383.393	15.6
383.76	15.64
384.128	15.67
384.495	15.69
384.862	15.7
385.229	15.72
385.596	15.72
385.963	15.74
386.33	15.75
386.697	15.79
387.064	15.79
387.431	15.83
387.798	15.81
388.165	15.84
388.532	15.85
388.899	15.88
389.265	15.9
389.632	15.93
389.999	15.95
390.365	15.95
390.732	15.96
391.098	16.01
391.465	16.02
391.831	16.05
392.198	16.07
392.564	16.07
392.93	16.1
393.297	16.13
393.663	16.17
394.029	16.2
394.395	16.24
394.762	16.26
395.128	16.26
395.494	16.27
395.86	16.31
396.226	16.34
396.592	16.38
396.958	16.4
397.323	16.43
397.689	16.47
398.055	16.51
398.421	16.56
398.787	16.62
399.152	16.68
399.518	16.74
399.883	16.76
400.249	16.81
400.615	16.85
400.98	16.88
401.345	16.91
401.711	16.91
402.076	16.9
402.442	16.89
402.807	16.89
403.172	16.9
403.537	16.88
403.902	16.89
404.268	16.9
404.633	16.9
404.998	16.91
405.363	16.91
405.728	16.94
406.093	16.98
406.457	16.99
406.822	17.02
407.187	17.05
407.552	17.12
407.917	17.15
408.281	17.17
408.646	17.2
409.011	17.25
409.375	17.29
409.74	17.31
410.104	17.35
410.469	17.39
410.833	17.4
411.197	17.4
411.562	17.42
411.926	17.44
412.29	17.45
412.655	17.46
413.019	17.46
413.383	17.49
413.747	17.5
414.111	17.53
414.475	17.56
414.839	17.62
415.203	17.67
415.567	17.71
415.931	17.74
416.295	17.79
416.658	17.82
417.022	17.87
417.386	17.9
417.749	17.93
418.113	17.95
418.477	17.97
418.84	17.96
419.204	17.99
419.567	18
419.931	18.03
420.294	18.04
420.657	18.12
421.021	18.16
421.384	18.19
421.747	18.26
422.11	18.31
422.473	18.33
422.836	18.38
423.199	18.42
423.562	18.47
423.925	18.5
424.288	18.53
424.651	18.52
425.014	18.55
425.377	18.59
425.74	18.59
426.102	18.59
426.465	18.65
426.828	18.68
427.19	18.7
427.553	18.74
427.916	18.76
428.278	18.79
428.641	18.81
429.003	18.82
429.365	18.79
429.728	18.8
430.09	18.8
430.452	18.78
430.814	18.76
431.177	18.78
431.539	18.76
431.901	18.78
432.263	18.8
432.625	18.84
432.987	18.88
433.349	18.94
433.711	19
434.072	19.08
434.434	19.15
434.796	19.22
435.158	19.28
435.519	19.38
435.881	19.44
436.243	19.48
436.604	19.53
436.966	19.56
437.327	19.61
437.689	19.64
438.05	19.64
438.411	19.67
438.773	19.71
439.134	19.73
439.495	19.76
439.856	19.81
440.218	19.84
440.579	19.85
440.94	19.88
441.301	19.93
441.662	20
442.023	20.07
442.384	20.16
442.745	20.22
443.105	20.25
443.466	20.28
443.827	20.29
444.188	20.36
444.548	20.45
444.909	20.51
445.269	20.54
445.63	20.55
445.99	20.6
446.351	20.6
446.711	20.61
447.072	20.66
447.432	20.7
447.792	20.73
448.153	20.73
448.513	20.74
448.873	20.77
449.233	20.78
449.593	20.8
449.953	20.82
450.313	20.84
450.673	20.89
451.033	20.93
451.393	20.96
451.753	21
452.113	21.56
452.472	21.6
452.832	21.6
453.192	21.64
453.551	21.63
453.911	21.61
454.271	21.57
454.63	21.54
454.989	21.53
455.349	21.52
455.708	21.51
456.068	21.25
456.427	21.26
456.786	21.3
457.145	21.33
457.505	21.42
457.864	21.51
458.223	21.62
458.582	21.74
458.941	21.84
459.3	21.96
459.659	22.04
460.018	22.12
460.376	22.19
460.735	22.26
461.094	22.31
461.453	22.34
461.811	22.36
462.17	22.4
462.529	22.41
462.887	22.43
463.246	22.45
463.604	22.49
463.963	22.53
464.321	22.61
464.679	22.65
465.038	22.72
465.396	22.76
465.754	22.84
466.112	22.88
466.47	22.98
466.828	23.06
467.186	23.13
467.544	23.2
467.902	23.27
468.26	23.25
468.618	23.26
468.976	23.28
469.334	23.33
469.692	23.35
470.049	23.37
470.407	23.36
470.765	23.36
471.122	23.37
471.48	23.45
471.837	23.51
472.195	23.58
472.552	23.68
472.909	23.75
473.267	23.8
473.624	23.86
473.981	23.93
474.338	24.01
474.696	24.06
475.053	24.13
475.41	24.11
475.767	24.15
476.124	24.17
476.481	24.2
476.838	24.22
477.194	24.24
477.551	24.26
477.908	24.27
478.265	24.29
478.621	24.34
478.978	24.38
479.335	24.43
479.691	24.49
480.048	24.54
480.404	24.56
480.761	24.61
481.117	24.63
481.473	24.66
481.83	24.69
482.186	24.72
482.542	24.74
482.898	24.76
483.255	24.78
483.611	24.78
483.967	24.81
484.323	24.86
484.679	24.89
485.035	24.92
485.39	24.96
485.746	25
486.102	25.03
486.458	25.05
486.814	25.07
487.169	25.15
487.525	25.19
487.88	25.21
488.236	25.2
488.591	25.22
488.947	25.25
489.302	25.27
489.658	25.28
490.013	25.29
490.368	25.3
490.723	25.3
491.079	25.26
491.434	25.28
491.789	25.3
492.144	25.34
492.499	25.37
492.854	25.41
493.209	25.45
493.564	25.49
493.919	25.55
494.273	25.59
494.628	25.62
494.983	25.67
495.338	25.67
495.692	25.67
496.047	25.67
496.401	25.66
496.756	25.61
497.11	25.59
497.465	25.56
497.819	25.53
498.173	25.51
498.528	25.51
498.882	25.5
499.236	25.52
499.59	25.55
499.944	25.57
500.298	25.58
500.652	25.59
501.006	25.6
501.36	25.62
501.714	25.63
502.068	25.64
502.422	25.66
502.776	25.7
503.129	25.77
503.483	25.81
503.837	25.88
504.19	25.94
504.544	26.02
504.897	26.05
505.251	26.07
505.604	26.1
505.958	26.11
506.311	26.08
506.664	26.06
507.017	25.99
507.371	25.93
507.724	25.85
508.077	25.81
508.43	25.76
508.783	25.75
509.136	25.75
509.489	25.72
509.842	25.73
510.195	25.75
510.547	25.73
510.9	25.73
511.253	25.7
511.606	25.69
511.958	25.64
512.311	25.59
512.663	25.52
513.016	25.45
513.368	25.4
513.721	25.34
514.073	25.3
514.425	25.28
514.778	25.23
515.13	25.22
515.482	25.19
515.834	25.19
516.186	25.21
516.538	25.24
516.89	25.29
517.242	25.35
517.594	25.4
517.946	25.43
518.298	25.42
518.65	25.46
519.001	25.47
519.353	25.49
519.705	25.45
520.056	25.4
520.408	25.32
520.759	25.25
521.111	25.19
521.462	25.14
521.814	25.11
522.165	25.12
522.516	25.05
522.868	25.01
523.219	24.97
523.57	24.98
523.921	24.93
524.272	24.91
524.623	24.86
524.974	24.82
525.325	24.75
525.676	24.65
526.027	24.61
526.378	24.58
526.728	24.53
527.079	24.49
527.43	24.42
527.78	24.41
528.131	24.38
528.481	24.38
528.832	24.35
529.182	24.34
529.533	24.34
529.883	24.3
530.233	24.26
530.584	24.24
530.934	24.19
531.284	24.11
531.634	24.04
531.984	24
532.334	23.92
532.684	23.84
533.034	23.77
533.384	23.73
533.734	23.7
534.084	23.62
534.434	23.57
534.783	23.51
535.133	23.49
535.483	23.46
535.832	23.41
536.182	23.41
536.531	23.39
536.881	23.36
537.23	23.31
537.58	23.21
537.929	23.17
538.278	24.59
538.628	24.56
538.977	24.48
539.326	24.42
539.675	24.38
540.024	24.28
540.373	24.21
540.722	24.14
541.071	24.08
541.42	24.05
541.769	24.02
542.117	22.54
542.466	22.45
542.815	22.42
543.163	22.35
543.512	22.25
543.861	22.22
544.209	22.17
544.558	22.13
544.906	22.08
545.254	21.99
545.603	21.93
545.951	21.86
546.299	21.82
546.647	21.82
546.996	21.82
547.344	21.79
547.692	21.75
548.04	21.69
548.388	21.63
548.736	21.59
549.083	21.57
549.431	21.51
549.779	21.46
550.127	21.42
550.475	21.31
550.822	21.22
551.17	21.18
551.517	21.13
551.865	21.1
552.212	21.06
552.56	21.01
552.907	20.97
553.254	20.93
553.602	20.87
553.949	20.8
554.296	20.72
554.643	20.65
554.99	20.58
555.337	20.51
555.684	20.43
556.031	20.36
556.378	20.27
556.725	20.16
557.072	20.06
557.419	19.98
557.765	19.9
558.112	19.86
558.459	19.81
558.805	19.72
559.152	19.62
559.498	19.53
559.845	19.42
560.191	19.34
560.538	19.3
560.884	19.22
561.23	19.17
561.576	19.1
561.923	18.99
562.269	18.89
562.615	18.86
562.961	18.78
563.307	18.73
563.653	18.69
563.999	18.6
564.344	18.52
564.69	18.45
565.036	18.34
565.382	18.25
565.727	18.19
566.073	18.15
566.419	18.04
566.764	17.96
567.11	17.89
567.455	17.86
567.8	17.87
568.146	17.8
568.491	17.75
568.836	17.69
569.181	17.63
569.527	17.55
569.872	17.45
570.217	17.37
570.562	17.36
570.907	17.3
571.252	17.22
571.597	17.1
571.941	17.03
572.286	16.99
572.631	16.98
572.976	16.96
573.32	16.92
573.665	16.92
574.009	16.9
574.354	16.9
574.698	16.89
575.043	16.88
575.387	16.87
575.731	16.86
576.076	16.78
576.42	16.77
576.764	16.76
577.108	16.69
577.452	16.68
577.796	16.57
578.14	16.5
578.484	16.49
578.828	16.47
579.172	16.42
579.516	16.37
579.86	16.3
580.203	16.27
580.547	16.21
580.891	16.13
581.234	16.1
581.578	16.02
581.921	16
582.264	15.91
582.608	15.88
582.951	15.86
583.294	15.83
583.638	15.76
583.981	15.77
584.324	15.74
584.667	15.73
585.01	15.72
585.353	15.7
585.696	15.64
586.039	15.64
586.382	15.62
586.725	15.6
587.067	15.58
587.41	15.56
587.753	15.51
588.095	15.49
588.438	15.47
588.781	15.46
589.123	15.44
589.465	15.42
589.808	15.42
590.15	15.41
590.492	15.37
590.835	15.34
591.177	15.3
591.519	15.29
591.861	15.26
592.203	15.23
592.545	15.18
592.887	15.16
593.229	15.14
593.571	15.12
593.913	15.11
594.254	15.08
594.596	15.08
594.938	15.02
595.279	15.01
595.621	15
595.963	14.98
596.304	14.94
596.645	14.87
596.987	14.85
597.328	14.79
597.669	14.77
598.011	14.74
598.352	14.72
598.693	14.71
599.034	14.67
599.375	14.62
599.716	14.6
600.057	14.59
600.398	14.58
600.739	14.58
601.08	14.58
601.42	14.53
601.761	14.49
602.102	14.49
602.442	14.49
602.783	14.43
603.123	14.41
603.464	14.38
603.804	14.36
604.145	14.35
604.485	14.31
604.825	14.27
605.166	14.23
605.506	14.23
605.846	14.18
606.186	14.16
606.526	14.11
606.866	14.09
607.206	14.08
607.546	14.01
607.886	13.95
608.225	13.91
608.565	13.86
608.905	13.83
609.245	13.8
609.584	13.75
609.924	13.72
610.263	13.71
610.603	13.7
610.942	13.69
611.281	13.65
611.621	13.64
611.96	13.62
612.299	13.65
612.638	13.66
612.978	13.61
613.317	13.59
613.656	13.58
613.995	13.57
614.334	13.55
614.672	13.52
615.011	13.51
615.35	13.5
615.689	13.48
616.027	13.48
616.366	13.47
616.705	13.45
617.043	13.42
617.382	13.37
617.72	13.29
618.059	13.26
618.397	13.24
618.735	13.23
619.073	13.24
619.412	13.15
619.75	13.09
620.088	13.05
620.426	13.02
620.764	12.99
621.102	12.96
621.44	12.92
621.778	12.88
622.115	12.85
622.453	12.85
622.791	12.85
623.129	12.77
623.466	12.71
623.804	12.69
624.141	12.66
624.479	12.62
624.816	12.59
625.153	12.55
625.491	12.53
625.828	12.48
626.165	12.45
626.502	12.43
626.84	12.4
627.177	12.33
627.514	12.28
627.851	12.19
628.188	12.11
628.524	12.02
628.861	12.02
629.198	11.94
629.535	11.92
629.871	11.88
630.208	11.87
630.545	11.84
630.881	11.8
631.218	11.75
631.554	11.74
631.89	11.72
632.227	11.7
632.563	11.67
632.899	11.64
633.235	11.59
633.572	11.59
633.908	11.53
634.244	11.55
634.58	11.55
634.916	11.52
635.251	11.53
635.587	11.56
635.923	11.54
636.259	11.47
636.595	11.46
636.93	11.47
637.266	11.42
637.601	11.38
637.937	11.26
638.272	11.21
638.608	11.21
638.943	11.15
639.278	11.08
639.613	11
639.949	11.01
640.284	10.95
640.619	10.93
640.954	10.92
641.289	10.87
641.624	10.85
641.959	10.88
642.294	10.8
642.628	10.76
642.963	10.72
643.298	10.66
643.632	10.74
643.967	10.66
644.302	10.57
644.636	10.59
644.971	10.51
645.305	10.55
645.639	10.43
645.974	10.39
646.308	10.35
646.642	10.29
646.976	10.32
647.31	10.19
647.644	10.22
647.978	10.17
648.312	10.11
648.646	10.12
648.98	10.1
649.314	10.08
649.647	10.05
649.981	9.95
650.315	9.89
650.648	9.84
650.982	9.75
651.315	9.67
651.649	9.68
651.982	9.58
652.316	9.56
652.649	9.48
652.982	9.41
653.315	9.43
653.648	9.52
653.982	9.54
654.315	9.58
654.648	9.58
654.981	9.61
655.313	9.6
655.646	9.65
655.979	9.63
656.312	9.63
656.644	9.66
656.977	9.59
657.31	9.51
657.642	9.4
657.975	9.31
658.307	9.26
658.64	9.22
658.972	9.17
659.304	9.15
659.636	9.17
659.969	9.11
660.301	9.03
660.633	9.05
660.965	9.02
661.297	9.1
661.629	9.09
661.961	9.09
662.292	9.08
662.624	9.09
662.956	9.06
663.288	9.09
663.619	9.17
663.951	9.21
664.282	9.18
664.614	9.2
664.945	9.12
665.276	9.12
665.608	9.17
665.939	9.14
666.27	9.07
666.601	9.02
666.933	8.91
667.264	8.84
667.595	8.76
667.926	8.73
668.256	8.6
668.587	8.57
668.918	8.46
669.249	8.35
669.58	8.34
669.91	8.38
670.241	8.33
670.571	8.4
670.902	8.29
671.232	8.36
671.563	8.38
671.893	8.47
672.223	8.55
672.554	8.65
672.884	8.62
673.214	8.62
673.544	8.64
673.874	8.59
674.204	8.52
674.534	8.59
674.864	8.58
675.194	8.54
675.524	8.45
675.853	8.41
676.183	8.38
676.513	8.49
676.842	8.46
677.172	8.48
677.501	8.57
677.831	8.57
678.16	8.51
678.489	8.46
678.819	8.48
679.148	8.54
679.477	8.51
679.806	8.4
680.135	8.25
680.464	8.2
680.793	8.12
681.122	8.05
681.451	8.02
681.78	7.94
682.108	7.89
682.437	7.78
682.766	7.71
683.094	7.64
683.423	7.61
683.751	7.67
684.08	7.61
684.408	7.5
684.737	7.5
685.065	7.45
685.393	7.58
685.721	7.57
686.049	7.63
686.377	7.62
686.705	7.61
687.033	7.71
687.361	7.68
687.689	7.73
688.017	7.79
688.345	7.74
688.673	7.71
689.0	7.66
689.328	7.62
689.655	7.6
689.983	7.57
690.31	7.53
690.638	7.53
690.965	7.54
691.292	7.58
691.62	7.57
691.947	7.63
692.274	7.64
692.601	7.64
692.928	7.69
693.255	7.7
693.582	7.72
693.909	7.72
694.236	7.64
694.562	7.61
694.889	7.62
695.216	7.59
695.542	7.58
695.869	7.49
696.196	7.54
696.522	7.53
696.848	7.52
697.175	7.51
697.501	7.47
697.827	7.51
698.154	7.41
698.48	7.3
698.806	7.3
699.132	7.29
699.458	7.37
699.784	7.35
700.11	7.31
700.435	7.35
700.761	7.36
701.087	7.37
701.413	7.3
701.738	7.33
702.064	7.37
702.389	7.29
702.715	7.29
703.04	7.25
703.366	7.19
703.691	7.22
704.016	7.14
704.341	7.19
704.666	7.27
704.992	7.27
705.317	7.36
705.642	7.42
705.967	7.47
706.291	7.28
706.616	7.17
706.941	7.14
707.266	7.16
707.59	7.07
707.915	7
708.24	6.9
708.564	6.84
708.889	6.73
709.213	6.56
709.537	6.48
709.862	6.57
710.186	6.68
710.51	6.64
710.834	6.62
711.158	6.65
711.482	6.61
711.806	6.56
712.13	6.55
712.454	6.59
712.778	6.75
713.102	6.74
713.426	6.81
713.749	6.84
714.073	6.91
714.396	6.88
714.72	6.91
715.043	6.99
715.367	7.07
715.69	7.09
716.013	7.11
716.337	7.06
716.66	7.31
716.983	7.43
717.306	7.5
717.629	7.49
717.952	7.41
718.275	7.44
718.598	7.16
718.921	7.07
719.243	7.22
719.566	7.24
719.889	7.35
720.211	7.22
720.534	7.18
720.856	6.9
721.179	6.85
721.501	6.91
721.823	6.93
722.146	7.12
722.468	7.23
722.79	7.12
723.112	7.04
723.434	6.95
723.756	6.98
724.078	6.9
724.4	6.99
724.722	6.96
725.044	7.03
725.366	6.82
725.687	6.84
726.009	6.82
726.33	6.85
726.652	6.83
726.973	6.93
727.295	6.86
727.616	6.92
727.938	6.89
728.259	7.11
728.58	6.99
728.901	7.36
729.222	7.39
729.543	7.41
729.864	7.33
730.185	7.29
730.506	7.06
730.827	7.18
731.148	7.02
731.468	7.15
731.789	6.94
732.11	7.05
732.43	6.95
732.751	7.07
733.071	7.01
733.392	6.97
733.712	7.27
734.032	7.36
734.352	7.06
734.673	7.05
734.993	6.91
735.313	6.91
735.633	7.19
735.953	6.91
736.273	6.89
736.593	6.91
736.912	6.9
737.232	6.82
737.552	6.82
737.871	7
738.191	7.12
738.51	7.31
738.83	7.43
739.149	7.18
739.469	7.38
739.788	7.53
740.107	7.49
740.426	7.73
740.746	7.65
741.065	7.52
741.384	7.48
741.703	7.48
742.022	7.46
742.341	7.38
742.659	7.29
742.978	7.01
743.297	6.58
743.615	6.53
743.934	6.36
744.253	6.16
744.571	6.26
744.89	6.03
745.208	5.92
745.526	5.87
745.845	5.59
746.163	5.46
746.481	5.86
746.799	5.81
747.117	5.64
747.435	5.53
747.753	5.73
748.071	5.71
748.389	6.03
748.706	6.06
749.024	5.99
749.342	6.46
749.659	6.88
749.977	6.62
750.295	6.91
750.612	7.12
750.929	7.24
751.247	7.26
751.564	7.38
751.881	7.4
752.198	7.78
752.516	7.86
752.833	7.83
753.15	7.6
753.467	7.75
753.783	7.76
754.1	8.01
754.417	8.02
754.734	7.9
755.05	7.79
755.367	7.78
755.684	7.4
756.0	7.16
756.317	6.77
756.633	6.66
756.949	6.67
757.266	6.47
757.582	6.58
757.898	6.75
758.214	6.96
758.53	6.82
758.846	6.68
759.162	6.68
759.478	6.63
759.794	6.77
760.11	6.91
760.426	6.93
760.741	6.77
761.057	6.12
761.372	5.95
761.688	5.88
762.003	6.23
762.319	6.2
762.634	6.48
762.949	6.48
763.265	6.36
763.58	6.5
763.895	6.17
764.21	6.28
764.525	6.74
764.84	6.75
765.155	6.62
765.47	6.17
765.785	6.22
766.099	6.06
766.414	6.14
766.729	6.42
767.043	6.19
767.358	6.42
767.672	6.61
767.987	6.52
768.301	6.74
768.615	6.74
768.929	6.88
769.244	6.87
769.558	6.81
769.872	7.09
770.186	6.89
770.5	6.92
770.814	7.29
771.127	7.49
771.441	7.24
771.755	6.81
772.069	6.91
772.382	7.42
772.696	7.66
773.009	7.71
773.323	7.41
773.636	7.29
773.95	7.07
774.263	6.74
774.576	6.4
774.889	6.65
775.202	6.96
775.515	7.17
775.828	6.76
776.141	6.38
776.454	6.48
776.767	6.26
777.08	6.6
777.393	6.91
777.705	6.67
778.018	6.21
778.33	5.78
778.643	5.14
778.955	4.89
779.268	5.03
779.58	5.31
779.892	5.46
780.205	5.96
780.517	6.31
780.829	6.92
781.141	7.47
781.453	8.13
781.765	8.4
782.077	8.76
782.388	8.59
782.7	8.3
783.012	8.37
783.324	7.7
783.635	7.9
783.947	7.73
784.258	7.13
784.57	7
784.881	6.75
785.192	7.06
785.504	7.26
785.815	7.24
786.126	7.16
786.437	7.26
786.748	7.57
787.059	7.04
787.37	6.27
787.681	5.82
787.992	6.09
788.302	6.67
788.613	6.65
788.924	6.37
789.234	6.83
789.545	7.22
789.855	7.24
790.166	7.31
790.476	7.27
790.786	7.12
791.096	7.15
791.407	6.98
791.717	6.61
792.027	6.8
792.337	7.17
792.647	6.76
792.957	6.6
793.266	6.27
793.576	6.46
793.886	6.76
794.196	7.64
794.505	11.4
794.815	10.89
795.124	10.68
795.434	10.67
795.743	10.13
796.052	9.89
796.362	9.87
796.671	10.08
796.98	10.07
797.289	9.71
797.598	9
797.907	5.43
798.216	5.79
798.525	5.76
798.834	4.9
799.142	5.92
799.451	6.45
799.76	6.63
800.068	6.5
800.377	5.87
800.685	6.25
800.994	7.03
801.302	7.02
801.61	7.36
801.918	7.61
802.227	7.87
802.535	7.19
802.843	7.13
803.151	6.44
803.459	6.58
803.767	6.63
804.074	6.66
804.382	6.61
804.69	7.57
804.998	6.93
805.305	6.72
805.613	7.06
805.92	7.15
806.228	7.09
806.535	7.97
806.842	7.31
807.15	7.55
807.457	7.36
807.764	7.56
808.071	6.01
808.378	6.55
808.685	6.36
808.992	6.44
809.299	5.86
809.605	6.38
809.912	6.36
810.219	6.61
810.525	7.01
810.832	7.43
811.138	6.46
811.445	6.84
811.751	6.3
812.058	5.87
812.364	6.32
812.67	7.41
812.976	6.82
813.282	6.76
813.588	6.72
813.894	6.95
814.2	6.37
814.506	7.48
814.812	8.63
815.118	8.64
815.423	9.36
815.729	8.05
816.035	7.37
816.34	8.01
816.646	7.86
816.951	8.41
817.256	7.18
817.562	7.53
817.867	6.98
818.172	6.49
818.477	6.21
818.782	6.86
819.087	7.83
819.392	7.67
819.697	7.65
820.002	7.51
820.306	7.47
820.611	8.21
820.916	7.83
821.22	7.94
821.525	7.78
821.829	7.89
822.134	7.26
822.438	7.1
822.742	7.07
823.047	6.91
823.351	6.87
823.655	6.72
823.959	6.62
824.263	6.53
824.567	6.6
824.871	6.48
825.174	6.57
825.478	7.66
825.782	7.64
826.086	7.86
826.389	8.04
826.693	7.88
826.996	7.81
827.3	7.94
827.603	8.06
827.906	7.85
828.209	7.88
828.513	7.67
828.816	6.51
829.119	6.44
829.422	6.17
829.725	5.82
830.028	6.11
830.33	6.45
830.633	6.68
830.936	6.63
831.238	6.67
831.541	7.19
831.844	7.33
832.146	6.79
832.448	7
832.751	6.81
833.053	7.25
833.355	7.56
833.657	7.46
833.96	6.77
834.262	7.22
834.564	7.16
834.865	7.19
835.167	8.25
835.469	8.92
835.771	8.22
836.073	8.55
836.374	8.01
836.676	7.52
836.977	7.58
837.279	7.69
837.58	7.84
837.882	8.62
838.183	8.06
838.484	7.26
838.785	7.65
839.086	8.89
839.387	8.78
839.688	9.61
839.989	10.27
840.29	10.52
840.591	11.14
840.892	10.18
841.192	10.19
841.493	9.64
841.794	9.27
842.094	8.82
842.394	8.59
842.695	14.39
842.995	14.09
843.295	13.4
843.596	13.04
843.896	12.79
844.196	13.01
844.496	11.59
844.796	11.76
845.096	10.76
845.396	10.04
845.695	9.18
845.995	2.21
846.295	1.1
846.594	2.85
846.894	2.8
847.194	3.69
847.493	4.69
847.792	5.08
848.092	5.9
848.391	6.54
848.69	7.77
848.989	10.13
849.288	10.59
849.587	11.46
849.886	10.64
850.185	11.66
850.484	12.61
850.783	13.16
851.081	14.85
851.38	14.63
851.679	16.23
851.977	15.94
852.276	13.85
852.574	12.11
852.872	12.72
853.171	13.03
853.469	12.02
853.767	8.22
854.065	6.15
854.363	4.93
854.661	6.78
854.959	5.62
855.257	6.5
855.555	8.33
855.853	9.47
856.15	9.25
856.448	8.96
856.746	10.01
857.043	11.67
857.341	16.12
857.638	18.83
857.935	15.12
858.233	14.79
858.53	12.43
858.827	12.61
859.124	12.08
859.421	10.06
859.718	10.43
860.015	7.92
860.312	7.27
860.609	3.88
860.905	0.5
861.202	2.01
861.499	0.61
861.795	2.67
862.092	2.38
862.388	2.81
862.684	6.81
862.981	5.02
863.277	7.22
863.573	7.24
863.869	9.05
864.165	6.91
864.461	6.53
864.757	11.04
865.053	12.08
865.349	9.31
865.645	9.8
865.94	10.09
866.236	11.93
866.532	11.8
866.827	13.94
867.123	11.91
867.418	16.66
867.713	17.02
868.009	14.61
868.304	12.3
868.599	15.58
868.894	16.76
869.189	15.83
869.484	16.8
869.779	17.69
870.074	15.36
870.369	16.05
870.663	14.59
870.958	15.41
871.252	15.1
871.547	15.59
871.842	11.52
872.136	10.42
872.43	10.03
872.725	9.1
873.019	7.79
873.313	7.51
873.607	6.74
873.901	5.88
874.195	5.97
874.489	6.07
874.783	6.63
875.077	6.04
875.37	5.64
875.664	4.14
875.958	1.9
876.251	3.77
876.545	8.66
876.838	7.64
877.132	9.27
877.425	10.22
877.718	11.59
878.011	11.16
878.305	14.2
878.598	12.18
878.891	13.11
879.184	14.59
879.476	15.93
879.769	12.49
880.062	10.91
880.355	7.61
880.647	4.31
880.94	3.16
881.232	3.6
881.525	3.69
881.817	4.09
882.11	5.05
882.402	5.17
882.694	2.9
882.986	2.99
883.278	5.58
883.57	6.92
883.862	8.23
884.154	8.32
884.446	8.6
884.738	8.58
885.03	9.86
885.321	9.98
885.613	10.01
885.904	10.47
886.196	11.13
886.487	11.33
886.779	11.79
887.07	12.25
887.361	12.3
887.652	12.26
887.943	12.75
888.234	12.7
888.525	13.34
888.816	15.54
889.107	17.02
889.398	18.7
889.689	18.41
889.979	19.66
890.27	18.98
890.56	21.44
890.851	23.24
891.141	25.45
891.432	25.73
891.722	27.21
