Data from groin1_Reflection__1__15-11-02-093.txt Node

Date: Thu Aug 04 15:11:02 AEST 2022
User: kathy
Spectrometer: JAZA2503
Trigger mode: 0
Integration Time (sec): 2.439700E-1
Scans to average: 10
Electric dark correction enabled: true
Nonlinearity correction enabled: true
Boxcar width: 5
XAxis mode: Wavelengths
Number of Pixels in Spectrum: 2048
>>>>>Begin Spectral Data<<<<<
189.467	129.67
189.852	79.6
190.237	139.8
190.622	142.39
191.007	159.8
191.392	65.43
191.777	45.08
192.162	5.85
192.546	-52.87
192.931	-841.87
193.316	361.79
193.701	399.6
194.086	91.62
194.47	115.45
194.855	-2985.01
195.24	-381.46
195.624	215.38
196.009	151.61
196.393	191.66
196.778	313.89
197.163	94.23
197.547	89.39
197.931	72.61
198.316	82.05
198.7	80.64
199.085	63.17
199.469	54.25
199.853	46.8
200.237	37.32
200.622	26.54
201.006	28.97
201.39	24.02
201.774	20.01
202.158	29.09
202.542	19.42
202.926	15.08
203.31	0.93
203.694	-1.6
204.078	2.68
204.462	13.88
204.846	23.5
205.23	18.25
205.614	20
205.998	23.02
206.381	23.62
206.765	32.35
207.149	30.79
207.532	39.05
207.916	37.75
208.3	35.07
208.683	30.92
209.067	29.82
209.45	27.97
209.834	31.72
210.217	29.63
210.601	18.97
210.984	19.43
211.367	23.71
211.751	21.74
212.134	24.73
212.517	29.77
212.901	30.42
213.284	32.47
213.667	34.23
214.05	32.07
214.433	29.67
214.816	32.32
215.199	25.34
215.582	19.46
215.965	13.4
216.348	13.5
216.731	8.29
217.114	2.51
217.497	-3.39
217.88	-8.09
218.262	-14.75
218.645	-14.62
219.028	-8.75
219.411	-4.36
219.793	1.97
220.176	7.2
220.559	3.96
220.941	5.09
221.324	10.66
221.706	13.71
222.089	15.74
222.471	17.2
222.853	17.06
223.236	14.62
223.618	11.44
224	8.76
224.383	6.74
224.765	5.67
225.147	6.96
225.529	5.15
225.912	4.36
226.294	3.53
226.676	1.54
227.058	0.86
227.44	0.66
227.822	1.8
228.204	2.77
228.586	3.29
228.968	3.81
229.349	3.03
229.731	3.16
230.113	2.73
230.495	2.86
230.877	3.53
231.258	3.87
231.64	4.1
232.022	3.82
232.403	3.56
232.785	3.43
233.166	2.97
233.548	3.26
233.929	3.15
234.311	3.48
234.692	3.49
235.073	3.34
235.455	3.58
235.836	3.89
236.217	3.71
236.599	3.91
236.98	3.82
237.361	4
237.742	3.52
238.123	3.25
238.504	3.13
238.885	3.08
239.266	2.72
239.647	2.08
240.028	1.76
240.409	1.8
240.79	1.56
241.171	1.41
241.552	1.35
241.933	1.41
242.313	1.66
242.694	1.69
243.075	1.72
243.456	1.65
243.836	1.81
244.217	2.14
244.597	2.21
244.978	2.27
245.358	2.65
245.739	2.66
246.119	2.68
246.5	2.48
246.88	2.35
247.26	2.23
247.641	2.29
248.021	2.23
248.401	1.98
248.781	2
249.162	1.99
249.542	1.65
249.922	1.72
250.302	1.77
250.682	1.7
251.062	1.66
251.442	1.72
251.822	1.68
252.202	1.72
252.582	1.78
252.961	1.8
253.341	1.84
253.721	2.06
254.101	1.82
254.48	1.8
254.86	1.94
255.24	2.24
255.619	2.16
255.999	2.16
256.378	2.11
256.758	2.08
257.137	1.9
257.517	1.79
257.896	1.75
258.276	1.72
258.655	1.43
259.034	1.19
259.414	1.01
259.793	1.07
260.172	0.99
260.551	0.93
260.93	0.82
261.309	0.82
261.688	0.74
262.068	0.76
262.447	0.72
262.825	0.77
263.204	0.74
263.583	0.72
263.962	0.67
264.341	0.76
264.72	0.78
265.099	0.9
265.477	0.99
265.856	1.04
266.235	1.02
266.613	1.08
266.992	1.09
267.371	1.28
267.749	1.29
268.128	1.14
268.506	1.1
268.884	1.14
269.263	1.13
269.641	1.03
270.02	1.04
270.398	1.01
270.776	1.07
271.154	1.1
271.533	1.13
271.911	1.07
272.289	1.15
272.667	1.16
273.045	1.1
273.423	1.02
273.801	1.04
274.179	0.95
274.557	0.94
274.935	0.83
275.313	0.84
275.69	0.81
276.068	0.83
276.446	0.81
276.824	0.68
277.201	0.68
277.579	0.75
277.957	0.73
278.334	0.76
278.712	0.74
279.089	0.7
279.467	0.61
279.844	0.6
280.222	0.56
280.599	0.57
280.976	0.69
281.354	0.66
281.731	0.66
282.108	0.68
282.485	0.71
282.863	0.7
283.24	0.79
283.617	0.86
283.994	0.86
284.371	0.89
284.748	0.93
285.125	0.92
285.502	0.95
285.879	0.99
286.256	1.02
286.633	1.05
287.009	1.17
287.386	1.2
287.763	1.21
288.139	1.22
288.516	1.3
288.893	1.34
289.269	1.36
289.646	1.38
290.022	1.39
290.399	1.43
290.775	1.5
291.152	1.47
291.528	1.48
291.904	1.46
292.281	1.46
292.657	1.46
293.033	1.45
293.41	1.49
293.786	1.53
294.162	1.58
294.538	1.59
294.914	1.59
295.29	1.63
295.666	1.68
296.042	1.74
296.418	1.85
296.794	1.89
297.17	1.97
297.546	1.99
297.921	2.04
298.297	2.11
298.673	2.15
299.048	2.2
299.424	2.26
299.8	2.31
300.175	2.35
300.551	2.39
300.926	2.46
301.302	2.51
301.677	2.59
302.053	2.65
302.428	2.67
302.803	2.73
303.179	2.8
303.554	2.85
303.929	2.91
304.304	2.98
304.68	3
305.055	3.06
305.43	3.06
305.805	3.13
306.18	3.14
306.555	3.18
306.93	3.24
307.305	3.24
307.679	3.23
308.054	3.25
308.429	3.23
308.804	3.26
309.179	3.27
309.553	3.28
309.928	3.29
310.303	3.31
310.677	3.33
311.052	3.33
311.426	3.34
311.801	3.38
312.175	3.4
312.55	3.48
312.924	3.52
313.298	3.53
313.673	3.55
314.047	3.54
314.421	3.55
314.795	3.57
315.17	3.6
315.544	3.63
315.918	3.66
316.292	3.69
316.666	3.7
317.04	3.72
317.414	3.76
317.788	3.83
318.162	3.91
318.535	3.98
318.909	4.01
319.283	4.08
319.657	4.12
320.03	4.19
320.404	4.28
320.778	4.38
321.151	4.49
321.525	4.66
321.898	4.85
322.272	4.98
322.645	5.11
323.019	5.25
323.392	5.49
323.765	5.68
324.139	5.91
324.512	6.25
324.885	6.5
325.258	6.73
325.632	6.89
326.005	7.06
326.378	7.11
326.751	7.16
327.124	7.18
327.497	7.17
327.87	7.19
328.243	7.18
328.616	7.22
328.988	7.19
329.361	7.23
329.734	7.19
330.107	7.11
330.479	6.98
330.852	6.9
331.225	6.88
331.597	6.8
331.97	6.72
332.342	6.65
332.715	6.58
333.087	6.54
333.46	6.43
333.832	6.35
334.204	6.34
334.577	6.32
334.949	6.25
335.321	6.24
335.693	6.17
336.065	6.08
336.438	6.01
336.81	5.93
337.182	5.82
337.554	5.75
337.926	5.73
338.298	5.66
338.669	5.58
339.041	5.5
339.413	5.42
339.785	5.32
340.157	5.25
340.528	5.18
340.9	5.14
341.272	5.12
341.643	5.11
342.015	5.1
342.386	5.07
342.758	5.11
343.129	5.14
343.501	5.13
343.872	5.09
344.243	5.07
344.615	5.05
344.986	4.99
345.357	4.99
345.728	4.97
346.099	5
346.471	5
346.842	5.01
347.213	4.97
347.584	4.96
347.955	4.97
348.326	4.92
348.697	4.85
349.067	4.8
349.438	4.79
349.809	4.77
350.18	4.81
350.55	4.81
350.921	4.85
351.292	4.88
351.662	4.9
352.033	4.88
352.403	4.89
352.774	4.87
353.144	4.89
353.515	4.87
353.885	4.86
354.255	4.84
354.626	4.82
354.996	4.8
355.366	4.76
355.736	4.74
356.107	4.71
356.477	4.71
356.847	4.73
357.217	4.7
357.587	4.7
357.957	4.71
358.327	4.7
358.697	4.69
359.066	4.7
359.436	4.73
359.806	4.73
360.176	4.77
360.546	4.78
360.915	4.77
361.285	4.77
361.654	4.76
362.024	4.75
362.393	4.76
362.763	4.78
363.132	4.77
363.502	4.78
363.871	4.78
364.24	4.77
364.61	4.76
364.979	4.76
365.348	4.75
365.717	4.79
366.087	4.8
366.456	4.79
366.825	4.8
367.194	4.8
367.563	4.81
367.932	4.79
368.301	4.8
368.669	4.83
369.038	4.85
369.407	4.87
369.776	4.85
370.145	4.83
370.513	4.85
370.882	4.85
371.25	4.86
371.619	4.86
371.988	4.89
372.356	4.9
372.724	4.9
373.093	4.88
373.461	4.87
373.83	4.89
374.198	4.9
374.566	4.88
374.934	4.88
375.303	4.89
375.671	4.91
376.039	4.89
376.407	4.9
376.775	4.89
377.143	4.9
377.511	4.93
377.879	4.94
378.247	4.95
378.615	4.97
378.982	4.97
379.35	4.96
379.718	4.95
380.086	4.98
380.453	4.98
380.821	4.98
381.188	4.97
381.556	4.99
381.923	4.99
382.291	4.99
382.658	4.99
383.026	5.02
383.393	5.04
383.76	5.06
384.128	5.08
384.495	5.1
384.862	5.09
385.229	5.1
385.596	5.09
385.963	5.1
386.33	5.13
386.697	5.15
387.064	5.13
387.431	5.12
387.798	5.1
388.165	5.08
388.532	5.07
388.899	5.07
389.265	5.07
389.632	5.06
389.999	5.07
390.365	5.06
390.732	5.06
391.098	5.09
391.465	5.1
391.831	5.1
392.198	5.1
392.564	5.1
392.93	5.11
393.297	5.1
393.663	5.12
394.029	5.12
394.395	5.14
394.762	5.14
395.128	5.14
395.494	5.16
395.86	5.19
396.226	5.22
396.592	5.24
396.958	5.25
397.323	5.26
397.689	5.3
398.055	5.31
398.421	5.33
398.787	5.34
399.152	5.34
399.518	5.34
399.883	5.32
400.249	5.33
400.615	5.33
400.98	5.34
401.345	5.35
401.711	5.34
402.076	5.33
402.442	5.32
402.807	5.33
403.172	5.35
403.537	5.34
403.902	5.35
404.268	5.35
404.633	5.35
404.998	5.33
405.363	5.33
405.728	5.33
406.093	5.33
406.457	5.34
406.822	5.35
407.187	5.36
407.552	5.38
407.917	5.41
408.281	5.41
408.646	5.42
409.011	5.45
409.375	5.49
409.74	5.49
410.104	5.5
410.469	5.5
410.833	5.49
411.197	5.48
411.562	5.47
411.926	5.46
412.29	5.46
412.655	5.48
413.019	5.49
413.383	5.48
413.747	5.48
414.111	5.48
414.475	5.5
414.839	5.5
415.203	5.53
415.567	5.53
415.931	5.56
416.295	5.6
416.658	5.6
417.022	5.62
417.386	5.62
417.749	5.64
418.113	5.64
418.477	5.63
418.84	5.63
419.204	5.63
419.567	5.64
419.931	5.63
420.294	5.6
420.657	5.61
421.021	5.59
421.384	5.61
421.747	5.61
422.11	5.63
422.473	5.64
422.836	5.66
423.199	5.69
423.562	5.7
423.925	5.72
424.288	5.72
424.651	5.71
425.014	5.75
425.377	5.75
425.74	5.76
426.102	5.77
426.465	5.8
426.828	5.82
427.19	5.83
427.553	5.83
427.916	5.84
428.278	5.86
428.641	5.88
429.003	5.86
429.365	5.86
429.728	5.88
430.09	5.88
430.452	5.87
430.814	5.86
431.177	5.85
431.539	5.85
431.901	5.87
432.263	5.88
432.625	5.89
432.987	5.9
433.349	5.91
433.711	5.92
434.072	5.95
434.434	5.96
434.796	5.99
435.158	6.01
435.519	6.03
435.881	6.07
436.243	6.07
436.604	6.1
436.966	6.12
437.327	6.14
437.689	6.16
438.05	6.15
438.411	6.19
438.773	6.21
439.134	6.22
439.495	6.24
439.856	6.24
440.218	6.27
440.579	6.27
440.94	6.28
441.301	6.3
441.662	6.33
442.023	6.34
442.384	6.36
442.745	6.38
443.105	6.38
443.466	6.41
443.827	6.41
444.188	6.43
444.548	6.45
444.909	6.48
445.269	6.48
445.63	6.5
445.99	6.51
446.351	6.54
446.711	6.56
447.072	6.58
447.432	6.58
447.792	6.6
448.153	6.61
448.513	6.63
448.873	6.62
449.233	6.66
449.593	6.67
449.953	6.69
450.313	6.68
450.673	6.7
451.033	6.72
451.393	6.72
451.753	6.73
452.113	7.01
452.472	7.02
452.832	7.02
453.192	7
453.551	6.98
453.911	6.95
454.271	6.94
454.63	6.92
454.989	6.91
455.349	6.91
455.708	6.91
456.068	6.78
456.427	6.78
456.786	6.79
457.145	6.81
457.505	6.83
457.864	6.87
458.223	6.9
458.582	6.93
458.941	6.97
459.3	7
459.659	7.02
460.018	7.04
460.376	7.07
460.735	7.09
461.094	7.11
461.453	7.13
461.811	7.13
462.17	7.15
462.529	7.16
462.887	7.17
463.246	7.18
463.604	7.2
463.963	7.21
464.321	7.11
464.679	7.11
465.038	7.12
465.396	7.14
465.754	7.16
466.112	7.17
466.47	7.2
466.828	7.22
467.186	7.24
467.544	7.26
467.902	7.29
468.26	7.45
468.618	7.49
468.976	7.51
469.334	7.53
469.692	7.54
470.049	7.56
470.407	7.57
470.765	7.59
471.122	7.6
471.48	7.62
471.837	7.64
472.195	7.68
472.552	7.71
472.909	7.75
473.267	7.77
473.624	7.81
473.981	7.84
474.338	7.86
474.696	7.9
475.053	7.92
475.41	7.93
475.767	7.96
476.124	7.97
476.481	8
476.838	8.02
477.194	8.04
477.551	8.05
477.908	8.06
478.265	8.07
478.621	8.09
478.978	8.12
479.335	8.17
479.691	8.19
480.048	8.22
480.404	8.24
480.761	8.27
481.117	8.3
481.473	8.34
481.83	8.37
482.186	8.39
482.542	8.4
482.898	8.42
483.255	8.43
483.611	8.45
483.967	8.46
484.323	8.48
484.679	8.5
485.035	8.52
485.39	8.53
485.746	8.54
486.102	8.57
486.458	8.61
486.814	8.64
487.169	8.67
487.525	8.67
487.88	8.71
488.236	8.73
488.591	8.73
488.947	8.75
489.302	8.76
489.658	8.78
490.013	8.78
490.368	8.78
490.723	8.78
491.079	8.78
491.434	8.8
491.789	8.8
492.144	8.8
492.499	8.82
492.854	8.83
493.209	8.86
493.564	8.87
493.919	8.89
494.273	8.91
494.628	8.92
494.983	8.93
495.338	8.95
495.692	8.96
496.047	9
496.401	8.98
496.756	8.99
497.11	8.98
497.465	8.98
497.819	8.97
498.173	8.98
498.528	8.99
498.882	9
499.236	9.01
499.59	9.02
499.944	9.03
500.298	9.06
500.652	9.07
501.006	9.08
501.36	9.09
501.714	9.09
502.068	9.1
502.422	9.11
502.776	9.13
503.129	9.14
503.483	9.15
503.837	9.17
504.19	9.17
504.544	9.18
504.897	9.2
505.251	9.21
505.604	9.22
505.958	9.22
506.311	9.21
506.664	9.19
507.017	9.17
507.371	9.17
507.724	9.14
508.077	9.14
508.43	9.14
508.783	9.12
509.136	9.12
509.489	9.11
509.842	9.11
510.195	9.11
510.547	9.11
510.9	9.12
511.253	9.1
511.606	9.1
511.958	9.07
512.311	9.06
512.663	9.05
513.016	9.02
513.368	9.02
513.721	9
514.073	8.99
514.425	8.98
514.778	8.98
515.13	8.98
515.482	8.97
515.834	8.97
516.186	8.96
516.538	8.96
516.89	8.98
517.242	8.98
517.594	8.99
517.946	9
518.298	9
518.65	8.99
519.001	8.98
519.353	8.98
519.705	8.98
520.056	8.98
520.408	9
520.759	8.99
521.111	8.99
521.462	8.96
521.814	8.94
522.165	8.93
522.516	8.93
522.868	8.91
523.219	8.9
523.57	8.88
523.921	8.85
524.272	8.83
524.623	8.81
524.974	8.77
525.325	8.78
525.676	8.78
526.027	8.78
526.378	8.75
526.728	8.74
527.079	8.75
527.43	8.77
527.78	8.76
528.131	8.73
528.481	8.72
528.832	8.72
529.182	8.7
529.533	8.68
529.883	8.65
530.233	8.64
530.584	8.62
530.934	8.59
531.284	8.53
531.634	8.49
531.984	8.49
532.334	8.46
532.684	8.43
533.034	8.42
533.384	8.41
533.734	8.41
534.084	8.38
534.434	8.36
534.783	8.33
535.133	8.32
535.483	8.35
535.832	8.35
536.182	8.33
536.531	8.31
536.881	8.3
537.23	8.28
537.58	8.23
537.929	8.25
538.278	9.06
538.628	9.07
538.977	9.04
539.326	9
539.675	8.98
540.024	8.96
540.373	8.94
540.722	8.92
541.071	8.92
541.42	8.93
541.769	8.9
542.117	8.06
542.466	8.04
542.815	8.02
543.163	8.01
543.512	7.95
543.861	7.92
544.209	7.92
544.558	7.91
544.906	7.88
545.254	7.84
545.603	7.83
545.951	7.81
546.299	7.81
546.647	7.83
546.996	7.81
547.344	7.81
547.692	7.81
548.04	7.81
548.388	7.79
548.736	7.76
549.083	7.77
549.431	7.74
549.779	7.7
550.127	7.64
550.475	7.58
550.822	7.56
551.17	7.54
551.517	7.54
551.865	7.5
552.212	7.47
552.56	7.47
552.907	7.47
553.254	7.44
553.602	7.45
553.949	7.45
554.296	7.45
554.643	7.43
554.99	7.4
555.337	7.34
555.684	7.32
556.031	7.3
556.378	7.25
556.725	7.19
557.072	7.17
557.419	7.16
557.765	7.12
558.112	7.1
558.459	7.09
558.805	7.06
559.152	7.06
559.498	7.04
559.845	7.03
560.191	7.02
560.538	7.03
560.884	7.03
561.23	6.99
561.576	7
561.923	6.96
562.269	6.92
562.615	6.91
562.961	6.89
563.307	6.87
563.653	6.85
563.999	6.82
564.344	6.78
564.69	6.75
565.036	6.75
565.382	6.7
565.727	6.67
566.073	6.69
566.419	6.67
566.764	6.67
567.11	6.64
567.455	6.63
567.8	6.64
568.146	6.6
568.491	6.6
568.836	6.54
569.181	6.5
569.527	6.47
569.872	6.41
570.217	6.38
570.562	6.33
570.907	6.32
571.252	6.29
571.597	6.24
571.941	6.23
572.286	6.21
572.631	6.21
572.976	6.23
573.32	6.25
573.665	6.26
574.009	6.28
574.354	6.32
574.698	6.33
575.043	6.33
575.387	6.33
575.731	6.34
576.076	6.33
576.42	6.32
576.764	6.31
577.108	6.3
577.452	6.3
577.796	6.28
578.14	6.27
578.484	6.27
578.828	6.21
579.172	6.21
579.516	6.21
579.86	6.22
580.203	6.21
580.547	6.19
580.891	6.17
581.234	6.16
581.578	6.15
581.921	6.09
582.264	6.07
582.608	6.07
582.951	6.07
583.294	6.06
583.638	6.06
583.981	6.05
584.324	6.05
584.667	6.06
585.01	6.06
585.353	6.06
585.696	6.05
586.039	6.05
586.382	6.05
586.725	6.05
587.067	6.03
587.41	6.02
587.753	6.01
588.095	5.99
588.438	5.99
588.781	5.97
589.123	5.94
589.465	5.93
589.808	5.91
590.15	5.9
590.492	5.89
590.835	5.88
591.177	5.84
591.519	5.83
591.861	5.82
592.203	5.81
592.545	5.81
592.887	5.8
593.229	5.79
593.571	5.79
593.913	5.77
594.254	5.76
594.596	5.76
594.938	5.73
595.279	5.73
595.621	5.71
595.963	5.69
596.304	5.68
596.645	5.68
596.987	5.69
597.328	5.69
597.669	5.69
598.011	5.67
598.352	5.65
598.693	5.65
599.034	5.65
599.375	5.63
599.716	5.62
600.057	5.62
600.398	5.62
600.739	5.62
601.08	5.62
601.42	5.62
601.761	5.63
602.102	5.65
602.442	5.67
602.783	5.68
603.123	5.68
603.464	5.67
603.804	5.66
604.145	5.66
604.485	5.62
604.825	5.61
605.166	5.6
605.506	5.6
605.846	5.61
606.186	5.6
606.526	5.59
606.866	5.58
607.206	5.56
607.546	5.53
607.886	5.52
608.225	5.48
608.565	5.47
608.905	5.44
609.245	5.42
609.584	5.41
609.924	5.39
610.263	5.39
610.603	5.4
610.942	5.41
611.281	5.43
611.621	5.43
611.96	5.44
612.299	5.44
612.638	5.44
612.978	5.45
613.317	5.46
613.656	5.49
613.995	5.52
614.334	5.55
614.672	5.55
615.011	5.54
615.35	5.52
615.689	5.52
616.027	5.52
616.366	5.52
616.705	5.53
617.043	5.51
617.382	5.47
617.72	5.47
618.059	5.38
618.397	5.37
618.735	5.36
619.073	5.36
619.412	5.34
619.75	5.31
620.088	5.3
620.426	5.27
620.764	5.27
621.102	5.26
621.44	5.24
621.778	5.23
622.115	5.18
622.453	5.18
622.791	5.21
623.129	5.2
623.466	5.17
623.804	5.16
624.141	5.15
624.479	5.15
624.816	5.16
625.153	5.18
625.491	5.18
625.828	5.16
626.165	5.15
626.502	5.14
626.84	5.13
627.177	5.14
627.514	5.09
627.851	5.04
628.188	5.03
628.524	4.97
628.861	4.96
629.198	4.96
629.535	4.93
629.871	4.9
630.208	4.89
630.545	4.86
630.881	4.83
631.218	4.84
631.554	4.86
631.89	4.84
632.227	4.9
632.563	4.92
632.899	4.94
633.235	4.91
633.572	4.91
633.908	4.89
634.244	4.91
634.58	4.9
634.916	4.86
635.251	4.87
635.587	4.86
635.923	4.81
636.259	4.81
636.595	4.79
636.93	4.82
637.266	4.82
637.601	4.83
637.937	4.77
638.272	4.73
638.608	4.77
638.943	4.72
639.278	4.71
639.613	4.7
639.949	4.66
640.284	4.59
640.619	4.63
640.954	4.66
641.289	4.68
641.624	4.71
641.959	4.79
642.294	4.77
642.628	4.76
642.963	4.8
643.298	4.76
643.632	4.87
643.967	4.87
644.302	4.82
644.636	4.82
644.971	4.74
645.305	4.72
645.639	4.69
645.974	4.7
646.308	4.65
646.642	4.58
646.976	4.62
647.31	4.47
647.644	4.5
647.978	4.43
648.312	4.43
648.646	4.44
648.98	4.44
649.314	4.41
649.647	4.39
649.981	4.4
650.315	4.37
650.648	4.35
650.982	4.39
651.315	4.32
651.649	4.33
651.982	4.29
652.316	4.33
652.649	4.32
652.982	4.32
653.315	4.25
653.648	4.31
653.982	4.36
654.315	4.42
654.648	4.36
654.981	4.41
655.313	4.48
655.646	4.45
655.979	4.43
656.312	4.47
656.644	4.45
656.977	4.48
657.31	4.38
657.642	4.32
657.975	4.3
658.307	4.33
658.64	4.28
658.972	4.22
659.304	4.29
659.636	4.27
659.969	4.22
660.301	4.18
660.633	4.21
660.965	4.21
661.297	4.29
661.629	4.29
661.961	4.24
662.292	4.28
662.624	4.3
662.956	4.23
663.288	4.29
663.619	4.31
663.951	4.38
664.282	4.32
664.614	4.32
664.945	4.28
665.276	4.22
665.608	4.24
665.939	4.21
666.27	4.19
666.601	4.24
666.933	4.18
667.264	4.17
667.595	4.12
667.926	4.13
668.256	4.15
668.587	4.07
668.918	4.12
669.249	4.12
669.58	4.12
669.91	4.12
670.241	4.04
670.571	4.09
670.902	4.02
671.232	4.06
671.563	4.07
671.893	4.04
672.223	4.07
672.554	4.03
672.884	4
673.214	4.03
673.544	4.1
673.874	4.12
674.204	4.1
674.534	4.09
674.864	4.08
675.194	4.1
675.524	4.15
675.853	4.12
676.183	4.15
676.513	4.25
676.842	4.19
677.172	4.07
677.501	4.12
677.831	4.15
678.16	4.17
678.489	4.19
678.819	4.23
679.148	4.27
679.477	4.35
679.806	4.33
680.135	4.22
680.464	4.32
680.793	4.37
681.122	4.26
681.451	4.26
681.78	4.19
682.108	4.22
682.437	4.06
682.766	3.95
683.094	3.85
683.423	3.83
683.751	3.86
684.08	3.7
684.408	3.64
684.737	3.66
685.065	3.56
685.393	3.71
685.721	3.6
686.049	3.67
686.377	3.71
686.705	3.79
687.033	3.84
687.361	3.79
687.689	3.84
688.017	3.88
688.345	3.88
688.673	3.91
689.0	3.84
689.328	3.86
689.655	3.93
689.983	3.99
690.31	3.92
690.638	3.88
690.965	3.92
691.292	4.05
691.62	4.13
691.947	4.1
692.274	4.13
692.601	4.08
692.928	4.12
693.255	4.06
693.582	4.04
693.909	4.15
694.236	4.18
694.562	4.2
694.889	4.16
695.216	4.08
695.542	4.22
695.869	4.2
696.196	4.32
696.522	4.29
696.848	4.32
697.175	4.23
697.501	4.11
697.827	4.08
698.154	4.05
698.48	4.01
698.806	4.01
699.132	3.92
699.458	3.94
699.784	3.93
700.11	3.94
700.435	3.87
700.761	3.84
701.087	3.8
701.413	3.79
701.738	3.73
702.064	3.68
702.389	3.59
702.715	3.61
703.04	3.56
703.366	3.5
703.691	3.44
704.016	3.36
704.341	3.54
704.666	3.58
704.992	3.63
705.317	3.76
705.642	3.93
705.967	4.06
706.291	3.98
706.616	3.98
706.941	4.05
707.266	4.14
707.59	4.25
707.915	4.17
708.24	4.16
708.564	4.1
708.889	4.04
709.213	3.86
709.537	3.73
709.862	3.68
710.186	3.7
710.51	3.57
710.834	3.51
711.158	3.6
711.482	3.56
711.806	3.53
712.13	3.51
712.454	3.51
712.778	3.55
713.102	3.61
713.426	3.84
713.749	3.73
714.073	3.86
714.396	3.93
714.72	3.9
715.043	3.95
715.367	4
715.69	4.14
716.013	4.15
716.337	4.15
716.66	4.31
716.983	4.26
717.306	4.39
717.629	4.32
717.952	4.16
718.275	4.13
718.598	3.98
718.921	3.99
719.243	4.01
719.566	4.07
719.889	4.21
720.211	4.15
720.534	4.12
720.856	4.12
721.179	4.21
721.501	4.38
721.823	4.34
722.146	4.37
722.468	4.42
722.79	4.26
723.112	4.32
723.434	4.1
723.756	4.19
724.078	4.25
724.4	4.15
724.722	3.98
725.044	3.87
725.366	3.82
725.687	3.76
726.009	3.72
726.33	3.74
726.652	3.74
726.973	3.97
727.295	3.94
727.616	3.87
727.938	4.04
728.259	4.3
728.58	4.32
728.901	4.46
729.222	4.79
729.543	4.96
729.864	5.03
730.185	4.75
730.506	4.54
730.827	4.48
731.148	4.42
731.468	4.22
731.789	4.03
732.11	4.05
732.43	4.13
732.751	4.06
733.071	3.78
733.392	3.75
733.712	3.91
734.032	3.96
734.352	3.94
734.673	3.91
734.993	3.89
735.313	3.91
735.633	4.2
735.953	4.05
736.273	3.91
736.593	4.08
736.912	3.94
737.232	3.97
737.552	4.03
737.871	3.85
738.191	4.02
738.51	4.2
738.83	4.21
739.149	3.89
739.469	4.04
739.788	4.2
740.107	4.18
740.426	4.33
740.746	4.39
741.065	4.28
741.384	4.43
741.703	4.4
742.022	4.33
742.341	4.44
742.659	4.5
742.978	4.3
743.297	4.03
743.615	3.96
743.934	3.98
744.253	3.85
744.571	3.89
744.89	3.67
745.208	3.59
745.526	3.52
745.845	3.26
746.163	3.31
746.481	3.58
746.799	3.5
747.117	3.44
747.435	3.17
747.753	3.17
748.071	3.18
748.389	3.36
748.706	3.22
749.024	3.3
749.342	3.29
749.659	3.45
749.977	3.13
750.295	3.35
750.612	3.15
750.929	3.37
751.247	3.48
751.564	3.66
751.881	3.85
752.198	4.28
752.516	4.3
752.833	4.83
753.15	4.57
753.467	4.77
753.783	4.83
754.1	5.25
754.417	5.12
754.734	4.78
755.05	4.68
755.367	4.42
755.684	4.1
756.0	3.98
756.317	3.66
756.633	3.68
756.949	3.58
757.266	3.43
757.582	3.39
757.898	3.65
758.214	3.92
758.53	3.85
758.846	4.11
759.162	4.14
759.478	3.95
759.794	3.84
760.11	3.89
760.426	3.77
760.741	3.89
761.057	3.65
761.372	3.39
761.688	3.27
762.003	3.68
762.319	3.75
762.634	3.79
762.949	3.97
763.265	3.86
763.58	3.86
763.895	3.8
764.21	3.77
764.525	3.92
764.84	4.14
765.155	4.1
765.47	3.64
765.785	3.35
766.099	3.29
766.414	3.23
766.729	3.5
767.043	3.65
767.358	3.99
767.672	4.23
767.987	4.21
768.301	4.34
768.615	4.54
768.929	4.68
769.244	4.76
769.558	5
769.872	5.1
770.186	4.95
770.5	4.83
770.814	4.61
771.127	4.54
771.441	4.4
771.755	3.99
772.069	3.84
772.382	4.21
772.696	4.44
773.009	3.87
773.323	3.74
773.636	3.57
773.95	3.37
774.263	3.34
774.576	3.1
774.889	3.57
775.202	3.84
775.515	4.28
775.828	4.19
776.141	4.02
776.454	4.37
776.767	4.41
777.08	4.94
777.393	5.16
777.705	5.17
778.018	4.98
778.33	4.59
778.643	4.13
778.955	4.02
779.268	3.88
779.58	4.3
779.892	4.41
780.205	4.41
780.517	4.81
780.829	5.2
781.141	5.4
781.453	5.77
781.765	6.36
782.077	6.37
782.388	5.78
782.7	5.44
783.012	5.35
783.324	5.09
783.635	5.55
783.947	4.91
784.258	4.6
784.57	4.84
784.881	5.05
785.192	4.85
785.504	5.43
785.815	5.81
786.126	6.11
786.437	5.92
786.748	5.88
787.059	5.91
787.37	5.8
787.681	5.54
787.992	5.41
788.302	5.83
788.613	6.13
788.924	5.53
789.234	5.52
789.545	5.63
789.855	5
790.166	5.14
790.476	4.65
790.786	4.28
791.096	3.85
791.407	3.69
791.717	2.83
792.027	2.41
792.337	2.87
792.647	3.25
792.957	3.38
793.266	3.91
793.576	4.5
793.886	5.14
794.196	5.91
794.505	9.41
794.815	9.57
795.124	9.82
795.434	10.13
795.743	10.04
796.052	9.69
796.362	9.88
796.671	10.22
796.98	10.4
797.289	9.69
797.598	8.8
797.907	6.06
798.216	6.26
798.525	6.4
798.834	5.71
799.142	6.14
799.451	6.08
799.76	5.09
800.068	4.73
800.377	3.66
800.685	3.94
800.994	4.55
801.302	4.06
801.61	3.78
801.918	3.18
802.227	3.39
802.535	3.23
802.843	3.58
803.151	3.76
803.459	3.91
803.767	4.25
804.074	4.77
804.382	4.81
804.69	5.86
804.998	5.81
805.305	6.69
805.613	7.11
805.92	6.68
806.228	6.37
806.535	6.07
806.842	6.12
807.15	5.67
807.457	4.6
807.764	4.84
808.071	3.16
808.378	3.27
808.685	2.62
808.992	2.14
809.299	1.83
809.605	2
809.912	3.73
810.219	3.01
810.525	4.14
810.832	5.11
811.138	4.9
811.445	6.21
811.751	5.66
812.058	6.24
812.364	7.18
812.67	8.22
812.976	8.31
813.282	7.49
813.588	7.4
813.894	6.82
814.2	6.24
814.506	6.56
814.812	7.06
815.118	7.38
815.423	7.49
815.729	6.63
816.035	5.79
816.34	5.41
816.646	4.77
816.951	5.56
817.256	4.78
817.562	5.71
817.867	5.75
818.172	5
818.477	4.73
818.782	4.73
819.087	4.86
819.392	5.18
819.697	5.26
820.002	5.46
820.306	5.59
820.611	6.27
820.916	6.16
821.22	6.01
821.525	5.95
821.829	6
822.134	5.17
822.438	4.97
822.742	4.92
823.047	5.07
823.351	5.15
823.655	5.08
823.959	5.11
824.263	4.99
824.567	5.08
824.871	5
825.174	5.04
825.478	7.61
825.782	8.07
826.086	8.17
826.389	8.27
826.693	8.36
826.996	8.37
827.3	8.33
827.603	8.25
827.906	8.09
828.209	8.2
828.513	8.17
828.816	5.59
829.119	5.11
829.422	5.06
829.725	4.77
830.028	4.78
830.33	4.91
830.633	5.27
830.936	5.47
831.238	5.78
831.541	5.87
831.844	6.04
832.146	5.15
832.448	5.28
832.751	5.78
833.053	6.28
833.355	6.5
833.657	6.74
833.96	6.39
834.262	6.1
834.564	5.56
834.865	5.59
835.167	6.32
835.469	6.73
835.771	5.99
836.073	5.36
836.374	5.29
836.676	5.05
836.977	5.21
837.279	5.49
837.58	6.59
837.882	7.55
838.183	7.3
838.484	6.83
838.785	7.28
839.086	8.68
839.387	9.29
839.688	9.5
839.989	9.82
840.29	9.81
840.591	10.13
840.892	10
841.192	10.57
841.493	10.67
841.794	11.1
842.094	10.26
842.394	9.9
842.695	8.94
842.995	8.28
843.295	8.35
843.596	8.3
843.896	7.84
844.196	7.32
844.496	5.77
844.796	4.93
845.096	3.66
845.396	3.98
845.695	4.24
845.995	7.21
846.295	7.73
846.594	9.16
846.894	8.95
847.194	8.73
847.493	7.25
847.792	7.31
848.092	8.98
848.391	8.15
848.69	9.92
848.989	10.93
849.288	9.22
849.587	10.29
849.886	8.53
850.185	8.62
850.484	11.24
850.783	14.38
851.081	13.89
851.38	12.63
851.679	13.74
851.977	11.47
852.276	10.82
852.574	10.4
852.872	10
853.171	11.44
853.469	10.01
853.767	5.97
854.065	4.01
854.363	6.83
854.661	8.03
854.959	10.9
855.257	13.77
855.555	16.05
855.853	18.13
856.15	18.09
856.448	17.01
856.746	18.26
857.043	19.15
857.341	21.62
857.638	22.88
857.935	21.24
858.233	18.7
858.53	16.75
858.827	15.4
859.124	15.93
859.421	14.61
859.718	15.91
860.015	14.57
860.312	14.88
860.609	13
860.905	11.31
861.202	10.68
861.499	8.93
861.795	12.07
862.092	11.29
862.388	9.76
862.684	11.65
862.981	8.31
863.277	9.26
863.573	8.24
863.869	6.45
864.165	1.77
864.461	3.59
864.757	8.32
865.053	5.26
865.349	3.3
865.645	0.31
865.94	0.75
866.236	1.32
866.532	1.41
866.827	4.47
867.123	7.72
867.418	11.59
867.713	12.49
868.009	10.99
868.304	12.87
868.599	15.4
868.894	17.86
869.189	17.16
869.484	18.96
869.779	19.65
870.074	18.37
870.369	17.97
870.663	17.52
870.958	16.61
871.252	17.39
871.547	16.35
871.842	17.15
872.136	18.66
872.43	20.25
872.725	20.52
873.019	19.42
873.313	18.92
873.607	18.3
873.901	17.79
874.195	19.38
874.489	19.88
874.783	20.24
875.077	16.54
875.37	15.18
875.664	11.72
875.958	9.34
876.251	8.7
876.545	8.54
876.838	4.78
877.132	2.96
877.425	6.06
877.718	4.58
878.011	5.17
878.305	8.98
878.598	8.64
878.891	7.92
879.184	10.65
879.476	15.6
879.769	15.56
880.062	14.21
880.355	13.88
880.647	8.57
880.94	7.54
881.232	3.42
881.525	2.23
881.817	2.23
882.11	2.51
882.402	2.88
882.694	1.32
882.986	1.09
883.278	3.14
883.57	4.23
883.862	5.54
884.154	6.07
884.446	7.34
884.738	7.11
885.03	8.96
885.321	9.05
885.613	8.65
885.904	8.43
886.196	8.79
886.487	9.2
886.779	9.5
887.07	9.2
887.361	10.02
887.652	10.45
887.943	10.73
888.234	10.27
888.525	10.07
888.816	11.66
889.107	13.6
889.398	15.4
889.689	16.43
889.979	17.79
890.27	18.06
890.56	17.22
890.851	16.45
891.141	19.06
891.432	19.69
891.722	21.21
