Data from thigh2_Reflection__5__15-03-50-047.txt Node

Date: Thu Aug 04 15:03:50 AEST 2022
User: kathy
Spectrometer: JAZA2503
Trigger mode: 0
Integration Time (sec): 2.439700E-1
Scans to average: 10
Electric dark correction enabled: true
Nonlinearity correction enabled: true
Boxcar width: 5
XAxis mode: Wavelengths
Number of Pixels in Spectrum: 2048
>>>>>Begin Spectral Data<<<<<
189.467	190.42
189.852	81.67
190.237	181.48
190.622	231.05
191.007	197.72
191.392	111.7
191.777	48.9
192.162	15.96
192.546	58.77
192.931	285.26
193.316	-3.22
193.701	-67.93
194.086	-20.42
194.47	82.27
194.855	-1606.54
195.24	203.38
195.624	39.03
196.009	13.83
196.393	-92.52
196.778	-171.61
197.163	-29.56
197.547	-4.28
197.931	-22.61
198.316	-6.16
198.7	-10.6
199.085	9.26
199.469	17.49
199.853	18.32
200.237	15.27
200.622	22.46
201.006	31.49
201.39	29.51
201.774	31.51
202.158	36.28
202.542	23.32
202.926	26.08
203.31	21.66
203.694	18.4
204.078	18.68
204.462	21.48
204.846	19.61
205.23	13.79
205.614	9.2
205.998	8
206.381	3.81
206.765	14.49
207.149	14.08
207.532	17.36
207.916	18.61
208.3	15.29
208.683	13.05
209.067	14.17
209.45	6.57
209.834	9.65
210.217	9.6
210.601	10.45
210.984	12.98
211.367	13.94
211.751	11.81
212.134	7.78
212.517	10.03
212.901	8.7
213.284	8.34
213.667	15.2
214.05	19.14
214.433	18.54
214.816	18.8
215.199	15.25
215.582	17.25
215.965	13.92
216.348	19.22
216.731	15.75
217.114	11.38
217.497	11.47
217.88	10.44
218.262	2.78
218.645	0.14
219.028	3.27
219.411	2.91
219.793	1.26
220.176	2.18
220.559	3.59
220.941	6.54
221.324	13.39
221.706	14
222.089	14.92
222.471	17.11
222.853	17.41
223.236	14.41
223.618	13.72
224	12.2
224.383	10.06
224.765	6.69
225.147	5.27
225.529	4.1
225.912	1.91
226.294	-0.47
226.676	-1.41
227.058	-2.4
227.44	-2.17
227.822	-1.39
228.204	0.04
228.586	1.17
228.968	1.33
229.349	1.41
229.731	1.43
230.113	1.18
230.495	1.74
230.877	2
231.258	2.4
231.64	2.62
232.022	2.35
232.403	2.37
232.785	1.96
233.166	1.84
233.548	1.85
233.929	1.77
234.311	2.38
234.692	1.91
235.073	1.93
235.455	2.12
235.836	2.83
236.217	2.92
236.599	2.53
236.98	2.76
237.361	2.93
237.742	2.76
238.123	2.58
238.504	2.29
238.885	2.74
239.266	2.91
239.647	2.71
240.028	2.17
240.409	2.14
240.79	2.33
241.171	2.15
241.552	1.99
241.933	1.96
242.313	2
242.694	2.07
243.075	2.02
243.456	1.88
243.836	1.9
244.217	2.14
244.597	2.11
244.978	2.05
245.358	2.25
245.739	2.34
246.119	2.43
246.5	2.4
246.88	2.42
247.26	2.3
247.641	2.13
248.021	2.1
248.401	1.96
248.781	2.03
249.162	2.07
249.542	1.95
249.922	1.91
250.302	1.94
250.682	1.89
251.062	1.86
251.442	1.91
251.822	2.04
252.202	2.07
252.582	2.02
252.961	2.02
253.341	1.99
253.721	2.1
254.101	2.13
254.48	1.99
254.86	2.05
255.24	2.08
255.619	2.09
255.999	2.27
256.378	2.13
256.758	2.16
257.137	2.1
257.517	1.88
257.896	1.69
258.276	1.59
258.655	1.38
259.034	1.3
259.414	1.18
259.793	1.15
260.172	1.06
260.551	1.03
260.93	0.84
261.309	0.8
261.688	0.77
262.068	0.81
262.447	0.81
262.825	0.93
263.204	0.89
263.583	0.86
263.962	0.88
264.341	0.87
264.72	0.87
265.099	1.03
265.477	1.13
265.856	1.22
266.235	1.17
266.613	1.1
266.992	1.04
267.371	1.17
267.749	1.25
268.128	1.1
268.506	1.12
268.884	1.33
269.263	1.32
269.641	1.18
270.02	1.17
270.398	1.13
270.776	1.22
271.154	1.2
271.533	1.2
271.911	1.19
272.289	1.23
272.667	1.23
273.045	1.18
273.423	1.17
273.801	1.23
274.179	1.21
274.557	1.29
274.935	1.21
275.313	1.22
275.69	1.18
276.068	1.18
276.446	1.19
276.824	1.14
277.201	1.05
277.579	1.09
277.957	1.08
278.334	1.05
278.712	1
279.089	1.03
279.467	0.97
279.844	1
280.222	0.94
280.599	0.88
280.976	0.93
281.354	0.93
281.731	0.87
282.108	0.91
282.485	0.95
282.863	0.95
283.24	0.96
283.617	1.03
283.994	1.01
284.371	1.03
284.748	1.1
285.125	1.11
285.502	1.12
285.879	1.15
286.256	1.15
286.633	1.2
287.009	1.23
287.386	1.24
287.763	1.26
288.139	1.29
288.516	1.37
288.893	1.44
289.269	1.47
289.646	1.5
290.022	1.55
290.399	1.58
290.775	1.59
291.152	1.64
291.528	1.7
291.904	1.74
292.281	1.78
292.657	1.78
293.033	1.78
293.41	1.83
293.786	1.89
294.162	1.99
294.538	2.01
294.914	2.09
295.29	2.15
295.666	2.21
296.042	2.27
296.418	2.34
296.794	2.4
297.17	2.49
297.546	2.57
297.921	2.63
298.297	2.68
298.673	2.77
299.048	2.83
299.424	2.9
299.8	2.97
300.175	3.05
300.551	3.13
300.926	3.23
301.302	3.28
301.677	3.32
302.053	3.4
302.428	3.45
302.803	3.52
303.179	3.59
303.554	3.64
303.929	3.7
304.304	3.77
304.68	3.83
305.055	3.88
305.43	3.95
305.805	4.03
306.18	4.07
306.555	4.15
306.93	4.2
307.305	4.23
307.679	4.28
308.054	4.33
308.429	4.35
308.804	4.39
309.179	4.42
309.553	4.45
309.928	4.51
310.303	4.56
310.677	4.57
311.052	4.58
311.426	4.64
311.801	4.68
312.175	4.7
312.55	4.76
312.924	4.82
313.298	4.84
313.673	4.89
314.047	4.88
314.421	4.91
314.795	4.96
315.17	5.02
315.544	5.07
315.918	5.07
316.292	5.15
316.666	5.22
317.04	5.28
317.414	5.37
317.788	5.45
318.162	5.56
318.535	5.67
318.909	5.78
319.283	5.92
319.657	5.99
320.03	6.19
320.404	6.29
320.778	6.54
321.151	6.8
321.525	7.21
321.898	7.64
322.272	8.01
322.645	8.44
323.019	8.86
323.392	9.35
323.765	9.83
324.139	10.33
324.512	10.92
324.885	11.5
325.258	12.04
325.632	12.41
326.005	12.79
326.378	13
326.751	13.08
327.124	13.12
327.497	13
327.87	12.99
328.243	12.95
328.616	12.99
328.988	13.02
329.361	13.05
329.734	12.99
330.107	12.93
330.479	12.81
330.852	12.62
331.225	12.54
331.597	12.43
331.97	12.26
332.342	12.09
332.715	11.9
333.087	11.71
333.46	11.54
333.832	11.45
334.204	11.35
334.577	11.28
334.949	11.26
335.321	11.24
335.693	11.12
336.065	11.04
336.438	10.95
336.81	10.84
337.182	10.69
337.554	10.54
337.926	10.42
338.298	10.26
338.669	10.12
339.041	10
339.413	9.97
339.785	9.88
340.157	9.78
340.528	9.75
340.9	9.68
341.272	9.61
341.643	9.54
342.015	9.52
342.386	9.51
342.758	9.53
343.129	9.58
343.501	9.6
343.872	9.57
344.243	9.54
344.615	9.51
344.986	9.46
345.357	9.47
345.728	9.42
346.099	9.43
346.471	9.41
346.842	9.37
347.213	9.31
347.584	9.29
347.955	9.27
348.326	9.17
348.697	9.05
349.067	9.02
349.438	9
349.809	9.01
350.18	9.05
350.55	9.07
350.921	9.1
351.292	9.16
351.662	9.19
352.033	9.21
352.403	9.21
352.774	9.21
353.144	9.22
353.515	9.21
353.885	9.2
354.255	9.15
354.626	9.13
354.996	9.09
355.366	9.08
355.736	9.05
356.107	9.01
356.477	9.05
356.847	9.05
357.217	9.05
357.587	9.06
357.957	9.06
358.327	9.06
358.697	9.07
359.066	9.11
359.436	9.12
359.806	9.12
360.176	9.16
360.546	9.15
360.915	9.17
361.285	9.16
361.654	9.16
362.024	9.18
362.393	9.2
362.763	9.23
363.132	9.22
363.502	9.24
363.871	9.25
364.24	9.25
364.61	9.27
364.979	9.29
365.348	9.31
365.717	9.36
366.087	9.37
366.456	9.38
366.825	9.42
367.194	9.45
367.563	9.49
367.932	9.52
368.301	9.56
368.669	9.61
369.038	9.63
369.407	9.68
369.776	9.68
370.145	9.72
370.513	9.77
370.882	9.79
371.25	9.89
371.619	9.93
371.988	9.98
372.356	10.04
372.724	10.06
373.093	10.08
373.461	10.12
373.83	10.19
374.198	10.25
374.566	10.29
374.934	10.34
375.303	10.36
375.671	10.4
376.039	10.44
376.407	10.48
376.775	10.53
377.143	10.61
377.511	10.66
377.879	10.73
378.247	10.78
378.615	10.85
378.982	10.93
379.35	10.96
379.718	11.03
380.086	11.09
380.453	11.14
380.821	11.22
381.188	11.26
381.556	11.34
381.923	11.4
382.291	11.48
382.658	11.56
383.026	11.61
383.393	11.72
383.76	11.82
384.128	11.91
384.495	11.99
384.862	12.06
385.229	12.14
385.596	12.18
385.963	12.24
386.33	12.33
386.697	12.37
387.064	12.4
387.431	12.42
387.798	12.45
388.165	12.46
388.532	12.5
388.899	12.55
389.265	12.59
389.632	12.64
389.999	12.67
390.365	12.7
390.732	12.73
391.098	12.78
391.465	12.81
391.831	12.87
392.198	12.89
392.564	12.93
392.93	12.94
393.297	12.95
393.663	12.97
394.029	13
394.395	13.05
394.762	13.09
395.128	13.14
395.494	13.18
395.86	13.21
396.226	13.28
396.592	13.31
396.958	13.37
397.323	13.43
397.689	13.5
398.055	13.56
398.421	13.59
398.787	13.64
399.152	13.66
399.518	13.7
399.883	13.72
400.249	13.75
400.615	13.79
400.98	13.81
401.345	13.81
401.711	13.82
402.076	13.82
402.442	13.85
402.807	13.85
403.172	13.9
403.537	13.92
403.902	13.95
404.268	13.96
404.633	13.99
404.998	14.02
405.363	14.07
405.728	14.08
406.093	14.13
406.457	14.14
406.822	14.18
407.187	14.22
407.552	14.26
407.917	14.3
408.281	14.32
408.646	14.31
409.011	14.35
409.375	14.4
409.74	14.45
410.104	14.47
410.469	14.48
410.833	14.49
411.197	14.48
411.562	14.5
411.926	14.5
412.29	14.54
412.655	14.59
413.019	14.62
413.383	14.61
413.747	14.61
414.111	14.64
414.475	14.67
414.839	14.71
415.203	14.75
415.567	14.76
415.931	14.8
416.295	14.84
416.658	14.85
417.022	14.85
417.386	14.88
417.749	14.89
418.113	14.9
418.477	14.91
418.84	14.93
419.204	14.94
419.567	14.96
419.931	14.97
420.294	15.01
420.657	15.02
421.021	15.04
421.384	15.04
421.747	15.07
422.11	15.09
422.473	15.1
422.836	15.11
423.199	15.13
423.562	15.16
423.925	15.17
424.288	15.16
424.651	15.17
425.014	15.23
425.377	15.27
425.74	15.28
426.102	15.3
426.465	15.37
426.828	15.4
427.19	15.43
427.553	15.45
427.916	15.48
428.278	15.49
428.641	15.53
429.003	15.53
429.365	15.52
429.728	15.54
430.09	15.55
430.452	15.53
430.814	15.55
431.177	15.53
431.539	15.56
431.901	15.58
432.263	15.62
432.625	15.65
432.987	15.67
433.349	15.73
433.711	15.77
434.072	15.83
434.434	15.88
434.796	15.94
435.158	16.02
435.519	16.08
435.881	16.12
436.243	16.16
436.604	16.17
436.966	16.19
437.327	16.24
437.689	16.27
438.05	16.28
438.411	16.33
438.773	16.38
439.134	16.39
439.495	16.42
439.856	16.45
440.218	16.48
440.579	16.52
440.94	16.56
441.301	16.61
441.662	16.66
442.023	16.69
442.384	16.72
442.745	16.71
443.105	16.73
443.466	16.77
443.827	16.78
444.188	16.82
444.548	16.86
444.909	16.89
445.269	16.89
445.63	16.94
445.99	16.97
446.351	17.02
446.711	17.08
447.072	17.13
447.432	17.14
447.792	17.17
448.153	17.2
448.513	17.23
448.873	17.28
449.233	17.32
449.593	17.34
449.953	17.37
450.313	17.37
450.673	17.38
451.033	17.41
451.393	17.42
451.753	17.46
452.113	17.77
452.472	17.79
452.832	17.78
453.192	17.76
453.551	17.74
453.911	17.72
454.271	17.69
454.63	17.68
454.989	17.69
455.349	17.69
455.708	17.7
456.068	17.55
456.427	17.55
456.786	17.56
457.145	17.6
457.505	17.63
457.864	17.68
458.223	17.72
458.582	17.78
458.941	17.81
459.3	17.85
459.659	17.88
460.018	17.9
460.376	17.93
460.735	17.97
461.094	17.96
461.453	17.97
461.811	17.96
462.17	17.98
462.529	18
462.887	18
463.246	18
463.604	18.01
463.963	18.02
464.321	18.08
464.679	18.1
465.038	18.14
465.396	18.16
465.754	18.2
466.112	18.24
466.47	18.27
466.828	18.3
467.186	18.35
467.544	18.38
467.902	18.42
468.26	18.39
468.618	18.42
468.976	18.44
469.334	18.47
469.692	18.49
470.049	18.47
470.407	18.46
470.765	18.5
471.122	18.5
471.48	18.55
471.837	18.57
472.195	18.61
472.552	18.64
472.909	18.66
473.267	18.7
473.624	18.73
473.981	18.77
474.338	18.81
474.696	18.83
475.053	18.89
475.41	18.89
475.767	18.93
476.124	18.94
476.481	18.96
476.838	18.99
477.194	19
477.551	19.01
477.908	19.03
478.265	19.04
478.621	19.06
478.978	19.08
479.335	19.12
479.691	19.15
480.048	19.18
480.404	19.21
480.761	19.27
481.117	19.3
481.473	19.32
481.83	19.34
482.186	19.37
482.542	19.39
482.898	19.39
483.255	19.41
483.611	19.4
483.967	19.42
484.323	19.42
484.679	19.4
485.035	19.42
485.39	19.44
485.746	19.47
486.102	19.47
486.458	19.49
486.814	19.51
487.169	19.54
487.525	19.56
487.88	19.57
488.236	19.57
488.591	19.59
488.947	19.58
489.302	19.6
489.658	19.6
490.013	19.6
490.368	19.58
490.723	19.55
491.079	19.51
491.434	19.5
491.789	19.5
492.144	19.49
492.499	19.5
492.854	19.5
493.209	19.49
493.564	19.49
493.919	19.49
494.273	19.51
494.628	19.51
494.983	19.53
495.338	19.53
495.692	19.5
496.047	19.48
496.401	19.45
496.756	19.4
497.11	19.36
497.465	19.32
497.819	19.29
498.173	19.25
498.528	19.25
498.882	19.21
499.236	19.2
499.59	19.19
499.944	19.2
500.298	19.21
500.652	19.22
501.006	19.22
501.36	19.22
501.714	19.2
502.068	19.18
502.422	19.16
502.776	19.17
503.129	19.18
503.483	19.17
503.837	19.17
504.19	19.15
504.544	19.13
504.897	19.11
505.251	19.07
505.604	19.05
505.958	19.04
506.311	19
506.664	18.95
507.017	18.87
507.371	18.82
507.724	18.73
508.077	18.68
508.43	18.63
508.783	18.59
509.136	18.56
509.489	18.5
509.842	18.46
510.195	18.43
510.547	18.38
510.9	18.34
511.253	18.28
511.606	18.23
511.958	18.16
512.311	18.11
512.663	18.03
513.016	17.95
513.368	17.91
513.721	17.87
514.073	17.81
514.425	17.76
514.778	17.72
515.13	17.68
515.482	17.66
515.834	17.63
516.186	17.6
516.538	17.57
516.89	17.56
517.242	17.54
517.594	17.49
517.946	17.47
518.298	17.44
518.65	17.41
519.001	17.39
519.353	17.34
519.705	17.29
520.056	17.23
520.408	17.18
520.759	17.13
521.111	17.08
521.462	17.03
521.814	16.97
522.165	16.92
522.516	16.85
522.868	16.78
523.219	16.74
523.57	16.69
523.921	16.65
524.272	16.57
524.623	16.5
524.974	16.42
525.325	16.38
525.676	16.33
526.027	16.29
526.378	16.25
526.728	16.19
527.079	16.15
527.43	16.11
527.78	16.06
528.131	16.03
528.481	15.98
528.832	15.94
529.182	15.91
529.533	15.85
529.883	15.78
530.233	15.72
530.584	15.67
530.934	15.59
531.284	15.52
531.634	15.43
531.984	15.39
532.334	15.34
532.684	15.25
533.034	15.17
533.384	15.13
533.734	15.09
534.084	15.03
534.434	14.97
534.783	14.93
535.133	14.85
535.483	14.82
535.832	14.75
536.182	14.7
536.531	14.65
536.881	14.58
537.23	14.53
537.58	14.45
537.929	14.42
538.278	14.68
538.628	14.59
538.977	14.53
539.326	14.47
539.675	14.41
540.024	14.34
540.373	14.31
540.722	14.28
541.071	14.21
541.42	14.19
541.769	14.12
542.117	13.74
542.466	13.7
542.815	13.67
543.163	13.64
543.512	13.57
543.861	13.52
544.209	13.44
544.558	13.39
544.906	13.35
545.254	13.26
545.603	13.22
545.951	13.18
546.299	13.14
546.647	13.12
546.996	13.08
547.344	13.04
547.692	13
548.04	12.98
548.388	12.95
548.736	12.9
549.083	12.87
549.431	12.8
549.779	12.72
550.127	12.66
550.475	12.56
550.822	12.47
551.17	12.44
551.517	12.37
551.865	12.29
552.212	12.23
552.56	12.17
552.907	12.14
553.254	12.09
553.602	12.07
553.949	12.05
554.296	12.03
554.643	12
554.99	11.93
555.337	11.9
555.684	11.85
556.031	11.78
556.378	11.7
556.725	11.62
557.072	11.57
557.419	11.54
557.765	11.46
558.112	11.44
558.459	11.42
558.805	11.36
559.152	11.29
559.498	11.24
559.845	11.21
560.191	11.19
560.538	11.16
560.884	11.14
561.23	11.05
561.576	11.02
561.923	10.94
562.269	10.87
562.615	10.87
562.961	10.87
563.307	10.85
563.653	10.83
563.999	10.79
564.344	10.74
564.69	10.66
565.036	10.64
565.382	10.57
565.727	10.54
566.073	10.51
566.419	10.44
566.764	10.36
567.11	10.31
567.455	10.27
567.8	10.22
568.146	10.16
568.491	10.14
568.836	10.08
569.181	10.06
569.527	10.02
569.872	9.96
570.217	9.9
570.562	9.88
570.907	9.86
571.252	9.82
571.597	9.77
571.941	9.74
572.286	9.71
572.631	9.71
572.976	9.71
573.32	9.71
573.665	9.68
574.009	9.69
574.354	9.7
574.698	9.68
575.043	9.68
575.387	9.66
575.731	9.66
576.076	9.63
576.42	9.6
576.764	9.54
577.108	9.52
577.452	9.49
577.796	9.46
578.14	9.43
578.484	9.41
578.828	9.39
579.172	9.36
579.516	9.36
579.86	9.35
580.203	9.33
580.547	9.32
580.891	9.3
581.234	9.28
581.578	9.24
581.921	9.2
582.264	9.16
582.608	9.14
582.951	9.13
583.294	9.13
583.638	9.13
583.981	9.13
584.324	9.12
584.667	9.1
585.01	9.08
585.353	9.06
585.696	9.05
586.039	9.04
586.382	9.03
586.725	9.03
587.067	9.02
587.41	8.98
587.753	8.94
588.095	8.94
588.438	8.94
588.781	8.94
589.123	8.92
589.465	8.88
589.808	8.86
590.15	8.86
590.492	8.85
590.835	8.82
591.177	8.8
591.519	8.75
591.861	8.76
592.203	8.76
592.545	8.75
592.887	8.75
593.229	8.74
593.571	8.72
593.913	8.7
594.254	8.69
594.596	8.7
594.938	8.7
595.279	8.65
595.621	8.64
595.963	8.62
596.304	8.59
596.645	8.58
596.987	8.57
597.328	8.58
597.669	8.58
598.011	8.53
598.352	8.52
598.693	8.5
599.034	8.5
599.375	8.47
599.716	8.43
600.057	8.43
600.398	8.43
600.739	8.43
601.08	8.44
601.42	8.44
601.761	8.4
602.102	8.4
602.442	8.38
602.783	8.38
603.123	8.36
603.464	8.35
603.804	8.32
604.145	8.31
604.485	8.29
604.825	8.26
605.166	8.24
605.506	8.24
605.846	8.25
606.186	8.23
606.526	8.22
606.866	8.22
607.206	8.22
607.546	8.21
607.886	8.2
608.225	8.14
608.565	8.12
608.905	8.11
609.245	8.09
609.584	8.01
609.924	8.02
610.263	8.01
610.603	8
610.942	8
611.281	8
611.621	7.98
611.96	7.96
612.299	7.96
612.638	7.96
612.978	7.95
613.317	7.93
613.656	7.93
613.995	7.92
614.334	7.92
614.672	7.92
615.011	7.9
615.35	7.89
615.689	7.88
616.027	7.86
616.366	7.86
616.705	7.86
617.043	7.86
617.382	7.86
617.72	7.85
618.059	7.8
618.397	7.8
618.735	7.79
619.073	7.8
619.412	7.8
619.75	7.78
620.088	7.78
620.426	7.79
620.764	7.75
621.102	7.74
621.44	7.74
621.778	7.73
622.115	7.69
622.453	7.68
622.791	7.68
623.129	7.65
623.466	7.63
623.804	7.6
624.141	7.59
624.479	7.57
624.816	7.54
625.153	7.54
625.491	7.54
625.828	7.54
626.165	7.53
626.502	7.52
626.84	7.51
627.177	7.48
627.514	7.45
627.851	7.39
628.188	7.36
628.524	7.33
628.861	7.35
629.198	7.32
629.535	7.25
629.871	7.24
630.208	7.25
630.545	7.17
630.881	7.15
631.218	7.16
631.554	7.17
631.89	7.16
632.227	7.13
632.563	7.09
632.899	7.1
633.235	7.13
633.572	7.08
633.908	7.02
634.244	7.07
634.58	7.03
634.916	6.99
635.251	7.01
635.587	6.98
635.923	6.96
636.259	6.96
636.595	6.91
636.93	6.89
637.266	6.92
637.601	6.9
637.937	6.84
638.272	6.82
638.608	6.81
638.943	6.78
639.278	6.77
639.613	6.74
639.949	6.76
640.284	6.76
640.619	6.79
640.954	6.79
641.289	6.75
641.624	6.74
641.959	6.75
642.294	6.7
642.628	6.68
642.963	6.67
643.298	6.61
643.632	6.62
643.967	6.6
644.302	6.52
644.636	6.51
644.971	6.47
645.305	6.46
645.639	6.4
645.974	6.46
646.308	6.41
646.642	6.43
646.976	6.49
647.31	6.46
647.644	6.47
647.978	6.46
648.312	6.44
648.646	6.48
648.98	6.49
649.314	6.53
649.647	6.52
649.981	6.5
650.315	6.4
650.648	6.39
650.982	6.34
651.315	6.26
651.649	6.23
651.982	6.21
652.316	6.25
652.649	6.27
652.982	6.23
653.315	6.19
653.648	6.21
653.982	6.29
654.315	6.33
654.648	6.34
654.981	6.46
655.313	6.55
655.646	6.53
655.979	6.46
656.312	6.41
656.644	6.44
656.977	6.41
657.31	6.34
657.642	6.2
657.975	6.12
658.307	6.11
658.64	6
658.972	5.92
659.304	5.91
659.636	5.9
659.969	5.86
660.301	5.79
660.633	5.79
660.965	5.82
661.297	5.95
661.629	5.98
661.961	5.95
662.292	5.97
662.624	5.95
662.956	5.95
663.288	5.94
663.619	6.02
663.951	6.03
664.282	6.02
664.614	6.01
664.945	5.93
665.276	5.85
665.608	5.84
665.939	5.81
666.27	5.74
666.601	5.77
666.933	5.76
667.264	5.6
667.595	5.58
667.926	5.52
668.256	5.47
668.587	5.44
668.918	5.43
669.249	5.43
669.58	5.44
669.91	5.5
670.241	5.4
670.571	5.46
670.902	5.47
671.232	5.48
671.563	5.52
671.893	5.62
672.223	5.68
672.554	5.74
672.884	5.77
673.214	5.77
673.544	5.84
673.874	5.89
674.204	5.85
674.534	5.9
674.864	5.96
675.194	5.99
675.524	5.92
675.853	5.89
676.183	5.75
676.513	5.73
676.842	5.66
677.172	5.58
677.501	5.58
677.831	5.49
678.16	5.45
678.489	5.35
678.819	5.36
679.148	5.36
679.477	5.41
679.806	5.49
680.135	5.47
680.464	5.56
680.793	5.58
681.122	5.54
681.451	5.65
681.78	5.54
682.108	5.58
682.437	5.47
682.766	5.43
683.094	5.34
683.423	5.28
683.751	5.31
684.08	5.19
684.408	5.12
684.737	5.15
685.065	5.02
685.393	5.18
685.721	5.11
686.049	5.22
686.377	5.19
686.705	5.24
687.033	5.36
687.361	5.26
687.689	5.32
688.017	5.44
688.345	5.43
688.673	5.54
689.0	5.49
689.328	5.61
689.655	5.67
689.983	5.79
690.31	5.75
690.638	5.81
690.965	5.82
691.292	5.89
691.62	5.84
691.947	5.75
692.274	5.74
692.601	5.72
692.928	5.69
693.255	5.6
693.582	5.5
693.909	5.49
694.236	5.32
694.562	5.32
694.889	5.27
695.216	5.24
695.542	5.33
695.869	5.24
696.196	5.29
696.522	5.17
696.848	5.08
697.175	5.04
697.501	5.03
697.827	5.04
698.154	5.03
698.48	5.03
698.806	5.03
699.132	5.06
699.458	5.12
699.784	5.1
700.11	5.15
700.435	5.18
700.761	5.18
701.087	5.21
701.413	5.21
701.738	5.16
702.064	5.06
702.389	4.98
702.715	4.85
703.04	4.71
703.366	4.7
703.691	4.63
704.016	4.67
704.341	4.64
704.666	4.7
704.992	4.72
705.317	4.85
705.642	4.85
705.967	4.99
706.291	5.05
706.616	5.14
706.941	5.18
707.266	5.33
707.59	5.24
707.915	5.42
708.24	5.22
708.564	5.15
708.889	5
709.213	5.06
709.537	4.96
709.862	4.86
710.186	4.91
710.51	4.78
710.834	4.65
711.158	4.66
711.482	4.53
711.806	4.74
712.13	4.85
712.454	4.97
712.778	5.03
713.102	5
713.426	5.1
713.749	5.12
714.073	5.24
714.396	5.27
714.72	5.32
715.043	5.29
715.367	5.14
715.69	5.06
716.013	4.98
716.337	4.96
716.66	5.05
716.983	5.1
717.306	5
717.629	4.96
717.952	4.95
718.275	4.9
718.598	4.87
718.921	4.84
719.243	4.94
719.566	4.91
719.889	5
720.211	5.09
720.534	5.06
720.856	5.05
721.179	4.96
721.501	5.12
721.823	5.29
722.146	5.3
722.468	5.37
722.79	5.27
723.112	5.23
723.434	5.18
723.756	5.12
724.078	5.22
724.4	5.21
724.722	5.3
725.044	5.26
725.366	5.14
725.687	5.15
726.009	5.19
726.33	5.2
726.652	5.3
726.973	5.36
727.295	5.34
727.616	5.22
727.938	5.36
728.259	5.47
728.58	5.34
728.901	5.41
729.222	5.63
729.543	5.65
729.864	5.66
730.185	5.69
730.506	5.48
730.827	5.58
731.148	5.61
731.468	5.6
731.789	5.5
732.11	5.64
732.43	5.69
732.751	5.67
733.071	5.56
733.392	5.6
733.712	5.65
734.032	5.69
734.352	5.55
734.673	5.42
734.993	5.34
735.313	5.39
735.633	5.46
735.953	5.22
736.273	5.16
736.593	5.23
736.912	4.99
737.232	4.89
737.552	4.86
737.871	4.91
738.191	5.14
738.51	5.31
738.83	5.18
739.149	4.95
739.469	5.13
739.788	5.12
740.107	5.21
740.426	5.52
740.746	5.58
741.065	5.72
741.384	5.64
741.703	5.55
742.022	5.37
742.341	5.46
742.659	5.64
742.978	5.6
743.297	5.39
743.615	5.22
743.934	4.99
744.253	4.87
744.571	4.85
744.89	4.86
745.208	4.83
745.526	4.8
745.845	4.62
746.163	4.46
746.481	4.63
746.799	4.41
747.117	4.29
747.435	4.34
747.753	4.55
748.071	4.53
748.389	4.53
748.706	4.44
749.024	4.66
749.342	4.71
749.659	5.03
749.977	4.57
750.295	5.13
750.612	5.13
750.929	5.2
751.247	5.05
751.564	5.04
751.881	5.08
752.198	5.38
752.516	5.25
752.833	5.31
753.15	4.8
753.467	5.24
753.783	4.99
754.1	5.21
754.417	5.16
754.734	5.33
755.05	5.45
755.367	5.34
755.684	5.22
756.0	5.17
756.317	5.17
756.633	5.48
756.949	5.56
757.266	5.97
757.582	6.04
757.898	6.19
758.214	5.94
758.53	5.79
758.846	6.04
759.162	5.99
759.478	5.91
759.794	5.98
760.11	6.1
760.426	5.81
760.741	5.43
761.057	5.35
761.372	5.16
761.688	5.51
762.003	5.66
762.319	5.23
762.634	5.27
762.949	5.18
763.265	5.13
763.58	5.01
763.895	4.88
764.21	4.85
764.525	5.03
764.84	5.2
765.155	5
765.47	4.74
765.785	5.04
766.099	4.94
766.414	4.94
766.729	4.95
767.043	4.9
767.358	5.01
767.672	5.2
767.987	5.08
768.301	5.32
768.615	5.49
768.929	5.56
769.244	5.39
769.558	5.53
769.872	5.69
770.186	5.8
770.5	5.59
770.814	5.52
771.127	5.43
771.441	5.15
771.755	4.76
772.069	4.4
772.382	4.83
772.696	5.05
773.009	4.74
773.323	4.75
773.636	4.63
773.95	4.77
774.263	5.03
774.576	4.65
774.889	5.28
775.202	5.45
775.515	5.94
775.828	5.96
776.141	5.86
776.454	6.06
776.767	5.74
777.08	5.88
777.393	6.27
777.705	6.35
778.018	6.59
778.33	6.26
778.643	5.91
778.955	5.86
779.268	5.78
779.58	5.85
779.892	5.79
780.205	6.32
780.517	6.67
780.829	6.45
781.141	6.29
781.453	6.38
781.765	6.39
782.077	6.15
782.388	5.89
782.7	5.17
783.012	5.32
783.324	5.9
783.635	5.9
783.947	5.39
784.258	5.52
784.57	5.71
784.881	5.4
785.192	5.68
785.504	5.89
785.815	5.92
786.126	6.19
786.437	6.19
786.748	5.77
787.059	5.58
787.37	5.7
787.681	5.46
787.992	5.32
788.302	5.94
788.613	5.6
788.924	5.38
789.234	5.55
789.545	5.79
789.855	5.35
790.166	5.22
790.476	5.21
790.786	4.8
791.096	4.53
791.407	4.58
791.717	4.34
792.027	4.21
792.337	4.76
792.647	4.37
792.957	4.13
793.266	4.31
793.576	4.48
793.886	5.1
794.196	5.98
794.505	8.26
794.815	8.05
795.124	7.89
795.434	8.1
795.743	8.03
796.052	8.06
796.362	8.58
796.671	9.08
796.98	9.39
797.289	8.4
797.598	7.79
797.907	5.78
798.216	6.11
798.525	5.93
798.834	5.41
799.142	5.49
799.451	5.43
799.76	5.05
800.068	4.39
800.377	3.77
800.685	3.95
800.994	3.85
801.302	3.85
801.61	3.86
801.918	4.07
802.227	4.26
802.535	4.11
802.843	4.51
803.151	3.89
803.459	3.85
803.767	3.91
804.074	4.2
804.382	4.46
804.69	5.55
804.998	5.07
805.305	5.26
805.613	5.73
805.92	5.46
806.228	5.22
806.535	5.46
806.842	5.59
807.15	5.28
807.457	4.98
807.764	5.27
808.071	3.69
808.378	4.67
808.685	5.03
808.992	4.7
809.299	4.9
809.605	5.41
809.912	6.52
810.219	6.25
810.525	7.01
810.832	7.56
811.138	7.36
811.445	7.83
811.751	6.88
812.058	6.49
812.364	7.1
812.67	7.52
812.976	7.68
813.282	7.54
813.588	8.12
813.894	8.19
814.2	8.64
814.506	8.61
814.812	9.35
815.118	9.68
815.423	9.57
815.729	8.52
816.035	7.6
816.34	6.48
816.646	5.7
816.951	5.02
817.256	3.95
817.562	3.48
817.867	3.52
818.172	2.7
818.477	2.26
818.782	3.11
819.087	4.03
819.392	4.65
819.697	4.97
820.002	5.29
820.306	5.86
820.611	6.19
820.916	6.35
821.22	6.52
821.525	6.87
821.829	6.6
822.134	5.86
822.438	5.94
822.742	5.71
823.047	6.02
823.351	6.01
823.655	5.93
823.959	5.84
824.263	5.61
824.567	5.56
824.871	5.4
825.174	5.58
825.478	7.65
825.782	7.83
826.086	8
826.389	7.98
826.693	7.85
826.996	7.84
827.3	8.19
827.603	8.42
827.906	8.38
828.209	8.49
828.513	8.42
828.816	6.22
829.119	5.67
829.422	5.62
829.725	5.52
830.028	5.86
830.33	6.03
830.633	6.03
830.936	5.75
831.238	6.14
831.541	6.3
831.844	6.59
832.146	5.98
832.448	5.78
832.751	6.43
833.053	6.81
833.355	7.13
833.657	7.17
833.96	6.91
834.262	6.87
834.564	6.17
834.865	5.85
835.167	5.92
835.469	5.57
835.771	5.98
836.073	5.52
836.374	5.01
836.676	4.72
836.977	4.94
837.279	5.08
837.58	5.94
837.882	7.3
838.183	7.12
838.484	7.72
838.785	8.36
839.086	8.74
839.387	9.2
839.688	9.67
839.989	9.29
840.29	8.55
840.591	8.73
840.892	8.44
841.192	8.01
841.493	7.9
841.794	7.54
842.094	8.06
842.394	8.39
842.695	15.01
842.995	16.15
843.295	16.29
843.596	16.37
843.896	16.23
844.196	15.72
844.496	15.44
844.796	15.08
845.096	15.73
845.396	15.77
845.695	15.16
845.995	5.79
846.295	3.19
846.594	5.1
846.894	7.02
847.194	8.35
847.493	9.39
847.792	8.8
848.092	10.42
848.391	9.26
848.69	10.75
848.989	12.28
849.288	12.03
849.587	12.88
849.886	11.98
850.185	11.6
850.484	11.59
850.783	12.01
851.081	12.25
851.38	13.59
851.679	14.32
851.977	12.65
852.276	11.36
852.574	10.49
852.872	9.86
853.171	10.24
853.469	10.08
853.767	8.04
854.065	6.62
854.363	7.44
854.661	5.77
854.959	4.69
855.257	6.52
855.555	8.37
855.853	9.8
856.15	11.34
856.448	10.45
856.746	9
857.043	8.24
857.341	9.98
857.638	9.26
857.935	8.9
858.233	9.2
858.53	9.77
858.827	10.86
859.124	11.08
859.421	11.54
859.718	12.33
860.015	13.71
860.312	15.27
860.609	13.65
860.905	15.04
861.202	16.66
861.499	15.08
861.795	16.38
862.092	16.34
862.388	14.15
862.684	13.5
862.981	12.66
863.277	12.37
863.573	11.78
863.869	13.11
864.165	8.91
864.461	6.62
864.757	10.47
865.053	9.58
865.349	8.96
865.645	10.35
865.94	10.31
866.236	11.7
866.532	10.44
866.827	10.09
867.123	8.36
867.418	13.02
867.713	12.33
868.009	9.92
868.304	6.83
868.599	7.27
868.894	7.01
869.189	7.87
869.484	6.64
869.779	6.5
870.074	6.69
870.369	6.93
870.663	4.79
870.958	6.27
871.252	8.39
871.547	9.42
871.842	6.52
872.136	7.35
872.43	7.83
872.725	8.29
873.019	9.83
873.313	11.42
873.607	11.04
873.901	11.35
874.195	11.2
874.489	10.68
874.783	10.77
875.077	12.03
875.37	12.67
875.664	12.15
875.958	11.92
876.251	13.46
876.545	13.4
876.838	13.2
877.132	14.55
877.425	15.88
877.718	14.63
878.011	14.19
878.305	13.9
878.598	12.46
878.891	9.01
879.184	11.74
879.476	11.99
879.769	12.66
880.062	9.13
880.355	6.27
880.647	3.04
880.94	4.33
881.232	5.67
881.525	5.97
881.817	5.66
882.11	8.95
882.402	7.26
882.694	6.98
882.986	6.12
883.278	8.72
883.57	9.94
883.862	10.66
884.154	9.75
884.446	9.09
884.738	8.72
885.03	8.96
885.321	8.11
885.613	7.96
885.904	7.34
886.196	7.7
886.487	7.49
886.779	6.3
887.07	5.84
887.361	6
887.652	5.84
887.943	6.06
888.234	5.84
888.525	6.51
888.816	7.49
889.107	9.14
889.398	9.15
889.689	9.06
889.979	11.06
890.27	13.03
890.56	14.26
890.851	15.94
891.141	17.23
891.432	18.57
891.722	19.63
