Data from thigh2_Reflection__1__11-43-38-143.txt Node

Date: Thu Aug 04 11:43:38 AEST 2022
User: kathy
Spectrometer: JAZA2503
Trigger mode: 0
Integration Time (sec): 2.883200E-1
Scans to average: 10
Electric dark correction enabled: true
Nonlinearity correction enabled: true
Boxcar width: 5
XAxis mode: Wavelengths
Number of Pixels in Spectrum: 2048
>>>>>Begin Spectral Data<<<<<
189.467	-116.68
189.852	-244.22
190.237	-5690.13
190.622	-313.33
191.007	-93.22
191.392	-268.26
191.777	-505.28
192.162	63.56
192.546	-82.2
192.931	-143.66
193.316	-116.26
193.701	-183.02
194.086	142.11
194.47	123.96
194.855	203.31
195.24	3466.58
195.624	397.74
196.009	-354.08
196.393	-47.7
196.778	-511.25
197.163	31.41
197.547	36.63
197.931	29.98
198.316	22.78
198.7	27.69
199.085	26.88
199.469	32.52
199.853	22.84
200.237	20.67
200.622	21.39
201.006	20.23
201.39	17.16
201.774	13.54
202.158	11.05
202.542	10.94
202.926	0.74
203.31	-7.05
203.694	-12.79
204.078	-12.05
204.462	-5.23
204.846	-5.18
205.23	-5.68
205.614	-4.99
205.998	-6.94
206.381	-3.05
206.765	-2.55
207.149	-3.38
207.532	2.5
207.916	0.83
208.3	5.27
208.683	3.15
209.067	0.58
209.45	4.97
209.834	8.76
210.217	13.97
210.601	14.62
210.984	12.73
211.367	21.43
211.751	23.33
212.134	27.71
212.517	26.39
212.901	29.95
213.284	33
213.667	33.39
214.05	31.38
214.433	27.77
214.816	29.3
215.199	33.75
215.582	26.08
215.965	23.87
216.348	21.68
216.731	20.93
217.114	18.11
217.497	16.4
217.88	13.44
218.262	13.06
218.645	14.57
219.028	12.43
219.411	7.36
219.793	9.87
220.176	10.7
220.559	7.32
220.941	6.79
221.324	7.56
221.706	9.13
222.089	10.17
222.471	10.66
222.853	7.42
223.236	7.06
223.618	6.79
224	7.11
224.383	4.69
224.765	6.78
225.147	7.3
225.529	6.08
225.912	4.9
226.294	3.73
226.676	2.98
227.058	3.66
227.44	3.35
227.822	3.5
228.204	3.09
228.586	3.52
228.968	2.91
229.349	2.5
229.731	2.96
230.113	2.71
230.495	2.93
230.877	2.96
231.258	3.14
231.64	3
232.022	2.62
232.403	2.83
232.785	2.87
233.166	2.66
233.548	2.69
233.929	2.46
234.311	2.39
234.692	2.25
235.073	2.15
235.455	2.16
235.836	1.98
236.217	2.53
236.599	2.09
236.98	1.83
237.361	1.94
237.742	2.03
238.123	1.79
238.504	1.86
238.885	1.51
239.266	1.53
239.647	1.36
240.028	1.73
240.409	1.68
240.79	1.89
241.171	1.72
241.552	1.61
241.933	1.6
242.313	1.59
242.694	1.64
243.075	1.86
243.456	1.73
243.836	1.86
244.217	1.78
244.597	1.75
244.978	1.65
245.358	1.76
245.739	1.79
246.119	1.71
246.5	1.76
246.88	1.71
247.26	1.61
247.641	1.54
248.021	1.43
248.401	1.39
248.781	1.32
249.162	1.42
249.542	1.43
249.922	1.47
250.302	1.54
250.682	1.41
251.062	1.51
251.442	1.49
251.822	1.68
252.202	1.75
252.582	1.78
252.961	1.88
253.341	1.78
253.721	1.79
254.101	1.71
254.48	1.72
254.86	1.73
255.24	1.59
255.619	1.77
255.999	1.52
256.378	1.42
256.758	1.53
257.137	1.47
257.517	1.39
257.896	1.34
258.276	1.36
258.655	1.19
259.034	1.13
259.414	1.08
259.793	1
260.172	1.1
260.551	1.06
260.93	1.01
261.309	0.94
261.688	0.95
262.068	0.96
262.447	0.97
262.825	1.01
263.204	1.05
263.583	1.02
263.962	1.02
264.341	0.99
264.72	1.01
265.099	0.96
265.477	1.04
265.856	0.97
266.235	0.88
266.613	0.73
266.992	0.69
267.371	0.72
267.749	0.82
268.128	0.8
268.506	0.8
268.884	0.81
269.263	0.81
269.641	0.8
270.02	0.81
270.398	0.78
270.776	0.94
271.154	1.02
271.533	0.99
271.911	0.93
272.289	0.96
272.667	0.97
273.045	0.98
273.423	1.01
273.801	0.99
274.179	0.99
274.557	1.04
274.935	1.01
275.313	0.94
275.69	0.97
276.068	0.98
276.446	0.97
276.824	0.92
277.201	0.92
277.579	0.92
277.957	0.95
278.334	0.95
278.712	0.88
279.089	0.83
279.467	0.92
279.844	0.93
280.222	0.93
280.599	0.96
280.976	0.95
281.354	0.91
281.731	0.91
282.108	0.93
282.485	0.92
282.863	0.99
283.24	0.97
283.617	0.93
283.994	0.87
284.371	0.92
284.748	0.9
285.125	0.89
285.502	0.9
285.879	0.92
286.256	0.93
286.633	0.96
287.009	0.96
287.386	1
287.763	1.04
288.139	1.1
288.516	1.11
288.893	1.15
289.269	1.22
289.646	1.3
290.022	1.31
290.399	1.33
290.775	1.37
291.152	1.38
291.528	1.42
291.904	1.43
292.281	1.45
292.657	1.46
293.033	1.5
293.41	1.58
293.786	1.61
294.162	1.67
294.538	1.77
294.914	1.84
295.29	1.91
295.666	2
296.042	2.06
296.418	2.13
296.794	2.22
297.17	2.27
297.546	2.31
297.921	2.38
298.297	2.45
298.673	2.49
299.048	2.54
299.424	2.64
299.8	2.7
300.175	2.79
300.551	2.89
300.926	2.99
301.302	3.08
301.677	3.16
302.053	3.27
302.428	3.3
302.803	3.38
303.179	3.48
303.554	3.55
303.929	3.63
304.304	3.7
304.68	3.76
305.055	3.82
305.43	3.89
305.805	3.93
306.18	3.98
306.555	4.1
306.93	4.14
307.305	4.15
307.679	4.17
308.054	4.16
308.429	4.16
308.804	4.2
309.179	4.21
309.553	4.23
309.928	4.28
310.303	4.29
310.677	4.28
311.052	4.29
311.426	4.31
311.801	4.34
312.175	4.41
312.55	4.46
312.924	4.47
313.298	4.48
313.673	4.52
314.047	4.54
314.421	4.54
314.795	4.59
315.17	4.65
315.544	4.72
315.918	4.76
316.292	4.81
316.666	4.86
317.04	4.95
317.414	5.06
317.788	5.13
318.162	5.2
318.535	5.29
318.909	5.38
319.283	5.41
319.657	5.49
320.03	5.61
320.404	5.67
320.778	5.83
321.151	6.07
321.525	6.4
321.898	6.74
322.272	7.11
322.645	7.54
323.019	7.91
323.392	8.33
323.765	8.86
324.139	9.41
324.512	9.95
324.885	10.53
325.258	11.01
325.632	11.45
326.005	11.85
326.378	12.12
326.751	12.31
327.124	12.56
327.497	12.66
327.87	12.71
328.243	12.77
328.616	12.86
328.988	12.89
329.361	12.84
329.734	12.88
330.107	12.84
330.479	12.79
330.852	12.68
331.225	12.61
331.597	12.51
331.97	12.39
332.342	12.27
332.715	12.19
333.087	12.09
333.46	12.01
333.832	11.96
334.204	11.85
334.577	11.81
334.949	11.76
335.321	11.68
335.693	11.58
336.065	11.48
336.438	11.36
336.81	11.25
337.182	11.18
337.554	11.07
337.926	10.95
338.298	10.83
338.669	10.69
339.041	10.61
339.413	10.52
339.785	10.47
340.157	10.42
340.528	10.32
340.9	10.25
341.272	10.18
341.643	10.14
342.015	10.15
342.386	10.21
342.758	10.29
343.129	10.38
343.501	10.43
343.872	10.46
344.243	10.5
344.615	10.43
344.986	10.42
345.357	10.38
345.728	10.4
346.099	10.36
346.471	10.36
346.842	10.36
347.213	10.33
347.584	10.35
347.955	10.33
348.326	10.28
348.697	10.21
349.067	10.15
349.438	10.12
349.809	10.11
350.18	10.16
350.55	10.2
350.921	10.23
351.292	10.3
351.662	10.32
352.033	10.37
352.403	10.38
352.774	10.41
353.144	10.4
353.515	10.39
353.885	10.39
354.255	10.38
354.626	10.35
354.996	10.36
355.366	10.33
355.736	10.31
356.107	10.27
356.477	10.26
356.847	10.23
357.217	10.26
357.587	10.26
357.957	10.26
358.327	10.26
358.697	10.3
359.066	10.28
359.436	10.3
359.806	10.3
360.176	10.35
360.546	10.37
360.915	10.41
361.285	10.39
361.654	10.39
362.024	10.41
362.393	10.41
362.763	10.41
363.132	10.43
363.502	10.44
363.871	10.47
364.24	10.46
364.61	10.49
364.979	10.51
365.348	10.54
365.717	10.59
366.087	10.6
366.456	10.64
366.825	10.65
367.194	10.68
367.563	10.71
367.932	10.74
368.301	10.76
368.669	10.79
369.038	10.79
369.407	10.82
369.776	10.84
370.145	10.87
370.513	10.89
370.882	10.96
371.25	10.99
371.619	11.03
371.988	11.08
372.356	11.13
372.724	11.18
373.093	11.24
373.461	11.28
373.83	11.31
374.198	11.36
374.566	11.42
374.934	11.43
375.303	11.49
375.671	11.53
376.039	11.59
376.407	11.64
376.775	11.68
377.143	11.74
377.511	11.79
377.879	11.86
378.247	11.95
378.615	12.01
378.982	12.09
379.35	12.14
379.718	12.18
380.086	12.27
380.453	12.35
380.821	12.41
381.188	12.45
381.556	12.53
381.923	12.59
382.291	12.62
382.658	12.69
383.026	12.73
383.393	12.8
383.76	12.87
384.128	12.89
384.495	12.95
384.862	13.02
385.229	13.1
385.596	13.17
385.963	13.23
386.33	13.31
386.697	13.37
387.064	13.46
387.431	13.53
387.798	13.61
388.165	13.66
388.532	13.73
388.899	13.76
389.265	13.8
389.632	13.84
389.999	13.89
390.365	13.93
390.732	13.97
391.098	13.99
391.465	14.04
391.831	14.08
392.198	14.13
392.564	14.16
392.93	14.21
393.297	14.25
393.663	14.29
394.029	14.35
394.395	14.39
394.762	14.44
395.128	14.49
395.494	14.54
395.86	14.59
396.226	14.66
396.592	14.71
396.958	14.76
397.323	14.82
397.689	14.88
398.055	14.92
398.421	14.97
398.787	15.02
399.152	15.08
399.518	15.12
399.883	15.16
400.249	15.18
400.615	15.23
400.98	15.26
401.345	15.3
401.711	15.33
402.076	15.36
402.442	15.39
402.807	15.4
403.172	15.43
403.537	15.46
403.902	15.5
404.268	15.51
404.633	15.54
404.998	15.57
405.363	15.61
405.728	15.67
406.093	15.7
406.457	15.74
406.822	15.81
407.187	15.84
407.552	15.89
407.917	15.93
408.281	16
408.646	16.06
409.011	16.1
409.375	16.14
409.74	16.14
410.104	16.15
410.469	16.18
410.833	16.2
411.197	16.24
411.562	16.27
411.926	16.28
412.29	16.3
412.655	16.33
413.019	16.36
413.383	16.39
413.747	16.44
414.111	16.51
414.475	16.56
414.839	16.62
415.203	16.68
415.567	16.72
415.931	16.76
416.295	16.84
416.658	16.86
417.022	16.9
417.386	16.92
417.749	16.96
418.113	16.97
418.477	17.01
418.84	17.04
419.204	17.08
419.567	17.12
419.931	17.16
420.294	17.17
420.657	17.22
421.021	17.27
421.384	17.33
421.747	17.36
422.11	17.44
422.473	17.46
422.836	17.48
423.199	17.5
423.562	17.52
423.925	17.55
424.288	17.57
424.651	17.61
425.014	17.62
425.377	17.65
425.74	17.67
426.102	17.69
426.465	17.74
426.828	17.79
427.19	17.83
427.553	17.85
427.916	17.9
428.278	17.93
428.641	17.95
429.003	17.97
429.365	17.98
429.728	18.02
430.09	18.01
430.452	18.01
430.814	18.03
431.177	18.03
431.539	18.05
431.901	18.06
432.263	18.1
432.625	18.13
432.987	18.17
433.349	18.23
433.711	18.29
434.072	18.37
434.434	18.44
434.796	18.5
435.158	18.59
435.519	18.66
435.881	18.72
436.243	18.77
436.604	18.81
436.966	18.87
437.327	18.93
437.689	18.94
438.05	18.93
438.411	18.96
438.773	18.98
439.134	18.99
439.495	19.01
439.856	19.06
440.218	19.1
440.579	19.14
440.94	19.15
441.301	19.2
441.662	19.25
442.023	19.33
442.384	19.34
442.745	19.36
443.105	19.39
443.466	19.42
443.827	19.44
444.188	19.44
444.548	19.46
444.909	19.51
445.269	19.5
445.63	19.51
445.99	19.52
446.351	19.59
446.711	19.61
447.072	19.67
447.432	19.69
447.792	19.72
448.153	19.79
448.513	19.83
448.873	19.84
449.233	19.87
449.593	19.9
449.953	19.93
450.313	19.92
450.673	19.93
451.033	19.9
451.393	19.93
451.753	19.91
452.113	20.21
452.472	20.19
452.832	20.2
453.192	20.18
453.551	20.21
453.911	20.22
454.271	20.26
454.63	20.31
454.989	20.36
455.349	20.39
455.708	20.42
456.068	20.28
456.427	20.34
456.786	20.37
457.145	20.43
457.505	20.47
457.864	20.53
458.223	20.58
458.582	20.64
458.941	20.7
459.3	20.74
459.659	20.78
460.018	20.83
460.376	20.84
460.735	20.86
461.094	20.86
461.453	20.87
461.811	20.88
462.17	20.88
462.529	20.88
462.887	20.87
463.246	20.87
463.604	20.88
463.963	20.89
464.321	20.78
464.679	20.79
465.038	20.79
465.396	20.8
465.754	20.79
466.112	20.8
466.47	20.8
466.828	20.81
467.186	20.81
467.544	20.83
467.902	20.8
468.26	20.98
468.618	20.99
468.976	21
469.334	21.01
469.692	21
470.049	21.01
470.407	20.99
470.765	20.98
471.122	20.99
471.48	21.01
471.837	21.05
472.195	21.06
472.552	21.09
472.909	21.12
473.267	21.14
473.624	21.18
473.981	21.21
474.338	21.23
474.696	21.24
475.053	21.23
475.41	21.24
475.767	21.25
476.124	21.27
476.481	21.27
476.838	21.27
477.194	21.28
477.551	21.28
477.908	21.28
478.265	21.29
478.621	21.31
478.978	21.32
479.335	21.34
479.691	21.35
480.048	21.35
480.404	21.35
480.761	21.37
481.117	21.4
481.473	21.41
481.83	21.41
482.186	21.42
482.542	21.42
482.898	21.44
483.255	21.44
483.611	21.46
483.967	21.49
484.323	21.53
484.679	21.53
485.035	21.53
485.39	21.53
485.746	21.53
486.102	21.53
486.458	21.53
486.814	21.53
487.169	21.54
487.525	21.52
487.88	21.51
488.236	21.48
488.591	21.46
488.947	21.46
489.302	21.46
489.658	21.46
490.013	21.45
490.368	21.44
490.723	21.43
491.079	21.41
491.434	21.39
491.789	21.38
492.144	21.37
492.499	21.37
492.854	21.37
493.209	21.37
493.564	21.37
493.919	21.36
494.273	21.36
494.628	21.35
494.983	21.32
495.338	21.32
495.692	21.31
496.047	21.31
496.401	21.28
496.756	21.26
497.11	21.21
497.465	21.17
497.819	21.16
498.173	21.14
498.528	21.14
498.882	21.17
499.236	21.19
499.59	21.21
499.944	21.22
500.298	21.25
500.652	21.24
501.006	21.25
501.36	21.26
501.714	21.24
502.068	21.24
502.422	21.23
502.776	21.2
503.129	21.19
503.483	21.18
503.837	21.17
504.19	21.16
504.544	21.13
504.897	21.1
505.251	21.08
505.604	21.06
505.958	21.01
506.311	20.96
506.664	20.91
507.017	20.81
507.371	20.75
507.724	20.67
508.077	20.6
508.43	20.56
508.783	20.52
509.136	20.46
509.489	20.45
509.842	20.41
510.195	20.38
510.547	20.36
510.9	20.34
511.253	20.29
511.606	20.25
511.958	20.18
512.311	20.13
512.663	20.08
513.016	20.03
513.368	19.96
513.721	19.93
514.073	19.88
514.425	19.85
514.778	19.81
515.13	19.78
515.482	19.74
515.834	19.71
516.186	19.68
516.538	19.65
516.89	19.65
517.242	19.65
517.594	19.62
517.946	19.59
518.298	19.58
518.65	19.55
519.001	19.5
519.353	19.46
519.705	19.42
520.056	19.36
520.408	19.3
520.759	19.22
521.111	19.14
521.462	19.1
521.814	19.05
522.165	18.98
522.516	18.96
522.868	18.91
523.219	18.85
523.57	18.78
523.921	18.75
524.272	18.69
524.623	18.64
524.974	18.58
525.325	18.52
525.676	18.45
526.027	18.36
526.378	18.28
526.728	18.25
527.079	18.21
527.43	18.18
527.78	18.13
528.131	18.1
528.481	18.03
528.832	18
529.182	17.96
529.533	17.93
529.883	17.95
530.233	17.91
530.584	17.85
530.934	17.83
531.284	17.78
531.634	17.72
531.984	17.66
532.334	17.63
532.684	17.57
533.034	17.54
533.384	17.49
533.734	17.42
534.084	17.37
534.434	17.33
534.783	17.26
535.133	17.2
535.483	17.15
535.832	17.12
536.182	17.07
536.531	17.03
536.881	16.98
537.23	16.92
537.58	16.84
537.929	16.77
538.278	17.73
538.628	17.67
538.977	17.59
539.326	17.52
539.675	17.44
540.024	17.37
540.373	17.31
540.722	17.23
541.071	17.16
541.42	17.15
541.769	17.1
542.117	16.04
542.466	15.99
542.815	15.97
543.163	15.94
543.512	15.91
543.861	15.89
544.209	15.84
544.558	15.82
544.906	15.81
545.254	15.73
545.603	15.66
545.951	15.62
546.299	15.6
546.647	15.6
546.996	15.57
547.344	15.51
547.692	15.45
548.04	15.43
548.388	15.37
548.736	15.33
549.083	15.32
549.431	15.32
549.779	15.27
550.127	15.2
550.475	15.12
550.822	15.06
551.17	15.01
551.517	14.98
551.865	14.92
552.212	14.88
552.56	14.86
552.907	14.79
553.254	14.71
553.602	14.67
553.949	14.62
554.296	14.55
554.643	14.52
554.99	14.48
555.337	14.44
555.684	14.39
556.031	14.3
556.378	14.21
556.725	14.17
557.072	14.12
557.419	14.08
557.765	14.03
558.112	13.99
558.459	13.92
558.805	13.88
559.152	13.82
559.498	13.76
559.845	13.72
560.191	13.65
560.538	13.59
560.884	13.51
561.23	13.45
561.576	13.36
561.923	13.29
562.269	13.22
562.615	13.18
562.961	13.12
563.307	13.12
563.653	13.11
563.999	13.07
564.344	13.04
564.69	13.04
565.036	13.03
565.382	13.03
565.727	13.03
566.073	13.01
566.419	12.94
566.764	12.87
567.11	12.82
567.455	12.76
567.8	12.73
568.146	12.66
568.491	12.62
568.836	12.55
569.181	12.49
569.527	12.45
569.872	12.42
570.217	12.37
570.562	12.34
570.907	12.3
571.252	12.27
571.597	12.24
571.941	12.22
572.286	12.17
572.631	12.17
572.976	12.15
573.32	12.12
573.665	12.11
574.009	12.06
574.354	12.05
574.698	12.04
575.043	12.01
575.387	12
575.731	11.97
576.076	11.95
576.42	11.94
576.764	11.9
577.108	11.88
577.452	11.87
577.796	11.83
578.14	11.83
578.484	11.76
578.828	11.75
579.172	11.74
579.516	11.74
579.86	11.68
580.203	11.66
580.547	11.62
580.891	11.59
581.234	11.54
581.578	11.52
581.921	11.51
582.264	11.49
582.608	11.47
582.951	11.44
583.294	11.43
583.638	11.42
583.981	11.41
584.324	11.41
584.667	11.4
585.01	11.39
585.353	11.36
585.696	11.36
586.039	11.35
586.382	11.33
586.725	11.32
587.067	11.31
587.41	11.3
587.753	11.31
588.095	11.31
588.438	11.3
588.781	11.3
589.123	11.26
589.465	11.25
589.808	11.22
590.15	11.21
590.492	11.19
590.835	11.16
591.177	11.11
591.519	11.07
591.861	11.04
592.203	11.02
592.545	11.01
592.887	11
593.229	10.97
593.571	10.92
593.913	10.87
594.254	10.86
594.596	10.86
594.938	10.84
595.279	10.81
595.621	10.78
595.963	10.76
596.304	10.76
596.645	10.76
596.987	10.75
597.328	10.71
597.669	10.69
598.011	10.69
598.352	10.69
598.693	10.69
599.034	10.67
599.375	10.67
599.716	10.66
600.057	10.65
600.398	10.64
600.739	10.64
601.08	10.63
601.42	10.61
601.761	10.6
602.102	10.57
602.442	10.55
602.783	10.55
603.123	10.5
603.464	10.5
603.804	10.48
604.145	10.47
604.485	10.43
604.825	10.42
605.166	10.4
605.506	10.41
605.846	10.41
606.186	10.41
606.526	10.4
606.866	10.39
607.206	10.39
607.546	10.37
607.886	10.33
608.225	10.33
608.565	10.33
608.905	10.32
609.245	10.31
609.584	10.29
609.924	10.26
610.263	10.26
610.603	10.24
610.942	10.21
611.281	10.19
611.621	10.16
611.96	10.12
612.299	10.11
612.638	10.11
612.978	10.07
613.317	10.03
613.656	10.01
613.995	9.99
614.334	9.92
614.672	9.91
615.011	9.89
615.35	9.88
615.689	9.86
616.027	9.85
616.366	9.82
616.705	9.8
617.043	9.79
617.382	9.78
617.72	9.74
618.059	9.72
618.397	9.69
618.735	9.68
619.073	9.67
619.412	9.66
619.75	9.62
620.088	9.61
620.426	9.59
620.764	9.58
621.102	9.57
621.44	9.56
621.778	9.56
622.115	9.52
622.453	9.52
622.791	9.51
623.129	9.49
623.466	9.48
623.804	9.47
624.141	9.44
624.479	9.44
624.816	9.43
625.153	9.41
625.491	9.41
625.828	9.4
626.165	9.39
626.502	9.36
626.84	9.33
627.177	9.35
627.514	9.32
627.851	9.25
628.188	9.21
628.524	9.15
628.861	9.12
629.198	9.09
629.535	9.07
629.871	9.06
630.208	9.06
630.545	9.07
630.881	8.99
631.218	8.98
631.554	9
631.89	9.01
632.227	9.01
632.563	8.98
632.899	8.94
633.235	8.89
633.572	8.84
633.908	8.82
634.244	8.79
634.58	8.76
634.916	8.75
635.251	8.71
635.587	8.68
635.923	8.64
636.259	8.64
636.595	8.63
636.93	8.58
637.266	8.6
637.601	8.5
637.937	8.48
638.272	8.53
638.608	8.48
638.943	8.43
639.278	8.38
639.613	8.35
639.949	8.31
640.284	8.33
640.619	8.37
640.954	8.32
641.289	8.36
641.624	8.35
641.959	8.27
642.294	8.24
642.628	8.24
642.963	8.24
643.298	8.25
643.632	8.23
643.967	8.22
644.302	8.14
644.636	8.14
644.971	8.1
645.305	8.06
645.639	8.06
645.974	8.04
646.308	7.95
646.642	7.93
646.976	7.89
647.31	7.86
647.644	7.81
647.978	7.8
648.312	7.76
648.646	7.79
648.98	7.8
649.314	7.8
649.647	7.8
649.981	7.86
650.315	7.85
650.648	7.83
650.982	7.79
651.315	7.83
651.649	7.85
651.982	7.84
652.316	7.76
652.649	7.72
652.982	7.7
653.315	7.68
653.648	7.67
653.982	7.69
654.315	7.64
654.648	7.6
654.981	7.51
655.313	7.48
655.646	7.51
655.979	7.6
656.312	7.6
656.644	7.62
656.977	7.59
657.31	7.58
657.642	7.52
657.975	7.51
658.307	7.49
658.64	7.55
658.972	7.58
659.304	7.5
659.636	7.42
659.969	7.37
660.301	7.35
660.633	7.41
660.965	7.37
661.297	7.36
661.629	7.41
661.961	7.4
662.292	7.29
662.624	7.24
662.956	7.27
663.288	7.27
663.619	7.27
663.951	7.2
664.282	7.09
664.614	7.04
664.945	6.99
665.276	6.91
665.608	6.92
665.939	6.97
666.27	6.94
666.601	6.89
666.933	6.87
667.264	6.84
667.595	6.8
667.926	6.85
668.256	6.86
668.587	6.89
668.918	6.93
669.249	6.89
669.58	6.87
669.91	6.89
670.241	6.9
670.571	6.9
670.902	6.96
671.232	6.93
671.563	6.86
671.893	6.89
672.223	6.87
672.554	6.87
672.884	6.95
673.214	6.95
673.544	6.99
673.874	6.99
674.204	6.98
674.534	6.85
674.864	6.83
675.194	6.81
675.524	6.81
675.853	6.82
676.183	6.71
676.513	6.62
676.842	6.62
677.172	6.52
677.501	6.5
677.831	6.47
678.16	6.49
678.489	6.56
678.819	6.57
679.148	6.48
679.477	6.47
679.806	6.51
680.135	6.5
680.464	6.5
680.793	6.51
681.122	6.47
681.451	6.45
681.78	6.48
682.108	6.46
682.437	6.47
682.766	6.52
683.094	6.53
683.423	6.48
683.751	6.49
684.08	6.36
684.408	6.28
684.737	6.25
685.065	6.19
685.393	6.17
685.721	6.12
686.049	6.09
686.377	6.09
686.705	6.05
687.033	6.16
687.361	6.17
687.689	6.24
688.017	6.37
688.345	6.44
688.673	6.49
689.0	6.49
689.328	6.49
689.655	6.55
689.983	6.64
690.31	6.69
690.638	6.55
690.965	6.47
691.292	6.46
691.62	6.44
691.947	6.39
692.274	6.4
692.601	6.37
692.928	6.36
693.255	6.26
693.582	6.11
693.909	6.02
694.236	6.13
694.562	6.14
694.889	6.16
695.216	6.13
695.542	6.14
695.869	6.14
696.196	6.18
696.522	6.16
696.848	6.15
697.175	6.21
697.501	6.26
697.827	6.25
698.154	6.3
698.48	6.27
698.806	6.28
699.132	6.24
699.458	6.24
699.784	6.19
700.11	6.21
700.435	6.25
700.761	6.21
701.087	6.11
701.413	6.05
701.738	6.02
702.064	5.99
702.389	5.93
702.715	5.97
703.04	5.97
703.366	5.96
703.691	5.99
704.016	5.87
704.341	5.82
704.666	5.87
704.992	5.81
705.317	5.75
705.642	5.77
705.967	5.75
706.291	5.72
706.616	5.73
706.941	5.77
707.266	5.75
707.59	6
707.915	6.19
708.24	6.24
708.564	6.27
708.889	6.36
709.213	6.4
709.537	6.45
709.862	6.46
710.186	6.42
710.51	6.41
710.834	6.48
711.158	6.34
711.482	6.18
711.806	6.21
712.13	6.2
712.454	6.17
712.778	6.23
713.102	6.16
713.426	6.2
713.749	6.2
714.073	6.29
714.396	6.15
714.72	6.16
715.043	6.14
715.367	6.01
715.69	6
716.013	5.96
716.337	5.9
716.66	5.96
716.983	5.91
717.306	5.79
717.629	5.55
717.952	5.64
718.275	5.65
718.598	5.76
718.921	5.73
719.243	5.8
719.566	5.86
719.889	5.82
720.211	5.77
720.534	5.64
720.856	5.75
721.179	5.99
721.501	5.91
721.823	5.89
722.146	5.82
722.468	5.81
722.79	5.7
723.112	5.55
723.434	5.66
723.756	5.64
724.078	5.75
724.4	5.55
724.722	5.54
725.044	5.51
725.366	5.46
725.687	5.55
726.009	5.57
726.33	5.54
726.652	5.69
726.973	5.44
727.295	5.58
727.616	5.51
727.938	5.69
728.259	5.69
728.58	5.86
728.901	5.94
729.222	5.8
729.543	5.81
729.864	5.85
730.185	5.63
730.506	5.61
730.827	5.47
731.148	5.44
731.468	5.3
731.789	5.17
732.11	4.96
732.43	4.81
732.751	4.86
733.071	4.9
733.392	4.98
733.712	5.18
734.032	5.35
734.352	5.44
734.673	5.52
734.993	5.71
735.313	5.74
735.633	6.03
735.953	6.25
736.273	6.36
736.593	6.49
736.912	6.4
737.232	6.17
737.552	6.15
737.871	6.14
738.191	6.24
738.51	6.25
738.83	6.41
739.149	6.3
739.469	6.17
739.788	5.92
740.107	5.72
740.426	5.77
740.746	6.1
741.065	6
741.384	5.86
741.703	5.8
742.022	5.68
742.341	5.65
742.659	5.62
742.978	5.55
743.297	5.89
743.615	5.97
743.934	5.97
744.253	5.71
744.571	5.94
744.89	6.16
745.208	6.15
745.526	6.18
745.845	5.94
746.163	5.83
746.481	6.21
746.799	6.24
747.117	6.22
747.435	6.47
747.753	6.8
748.071	6.61
748.389	6.62
748.706	6.53
749.024	6.67
749.342	6.82
749.659	6.99
749.977	6.6
750.295	6.37
750.612	6.26
750.929	5.75
751.247	5.74
751.564	5.73
751.881	5.62
752.198	5.79
752.516	5.67
752.833	5.55
753.15	5.44
753.467	5.32
753.783	5.25
754.1	5.34
754.417	5.43
754.734	5.08
755.05	5.22
755.367	4.95
755.684	4.81
756.0	4.78
756.317	4.86
756.633	4.99
756.949	5.36
757.266	5.4
757.582	5.35
757.898	5.37
758.214	5.38
758.53	5.5
758.846	5.75
759.162	5.66
759.478	5.62
759.794	5.66
760.11	5.59
760.426	5.39
760.741	5.44
761.057	5.27
761.372	5.42
761.688	5.69
762.003	5.39
762.319	5.55
762.634	5.78
762.949	5.62
763.265	5.78
763.58	5.68
763.895	5.61
764.21	5.62
764.525	5.66
764.84	5.87
765.155	5.95
765.47	6.12
765.785	5.93
766.099	5.9
766.414	5.97
766.729	5.53
767.043	5.69
767.358	5.77
767.672	5.55
767.987	5.46
768.301	5.24
768.615	5.11
768.929	4.84
769.244	4.79
769.558	4.99
769.872	5.16
770.186	5.61
770.5	5.47
770.814	5.27
771.127	5.71
771.441	5.92
771.755	5.97
772.069	5.7
772.382	5.55
772.696	5.68
773.009	5.22
773.323	5.27
773.636	5.05
773.95	5.23
774.263	6.01
774.576	5.37
774.889	5.54
775.202	5.76
775.515	6.01
775.828	6.24
776.141	6.34
776.454	6.57
776.767	6.48
777.08	6.48
777.393	5.99
777.705	5.22
778.018	5.75
778.33	5.94
778.643	6.05
778.955	5.71
779.268	5.91
779.58	6.05
779.892	6.39
780.205	6.4
780.517	6.33
780.829	7.18
781.141	7.58
781.453	7.41
781.765	7.22
782.077	6.74
782.388	7.3
782.7	6.93
783.012	7.06
783.324	6.43
783.635	6.38
783.947	6.64
784.258	5.84
784.57	5.7
784.881	5.46
785.192	4.71
785.504	4.78
785.815	4.46
786.126	4.74
786.437	4.76
786.748	4.63
787.059	4.69
787.37	4.51
787.681	4.69
787.992	4.75
788.302	5.11
788.613	5.78
788.924	5.89
789.234	6.13
789.545	6.39
789.855	5.98
790.166	6.24
790.476	6.18
790.786	6.13
791.096	6.12
791.407	6.42
791.717	6.1
792.027	6.47
792.337	6
792.647	5.8
792.957	5.54
793.266	5.55
793.576	5.25
793.886	5.17
794.196	5.22
794.505	7.85
794.815	7.33
795.124	7.5
795.434	7.23
795.743	7.2
796.052	7.29
796.362	7.1
796.671	7.4
796.98	7.85
797.289	7.65
797.598	7.47
797.907	5.26
798.216	5.48
798.525	5.78
798.834	5.95
799.142	6.26
799.451	6.54
799.76	7.33
800.068	7.12
800.377	7.56
800.685	8.2
800.994	8.24
801.302	8.06
801.61	8
801.918	7.31
802.227	7.29
802.535	7.44
802.843	7.21
803.151	6.35
803.459	6.43
803.767	5.92
804.074	5.79
804.382	5.94
804.69	6.9
804.998	6.67
805.305	7.25
805.613	7.41
805.92	7.6
806.228	7.87
806.535	7.47
806.842	7.49
807.15	7.18
807.457	7.05
807.764	6.78
808.071	5.73
808.378	5.88
808.685	5.64
808.992	5.33
809.299	5.07
809.605	4.62
809.912	5.71
810.219	5.54
810.525	5.84
810.832	5.44
811.138	6.14
811.445	5.96
811.751	6
812.058	5.94
812.364	5.94
812.67	6.09
812.976	5.84
813.282	5.39
813.588	5
813.894	5.24
814.2	5.57
814.506	5.54
814.812	5.41
815.118	5.93
815.423	6.36
815.729	7
816.035	6.43
816.34	6.79
816.646	7.65
816.951	8.26
817.256	7.64
817.562	8.46
817.867	7.88
818.172	8.2
818.477	7.85
818.782	7.59
819.087	7.06
819.392	7.31
819.697	6.72
820.002	5.66
820.306	5.44
820.611	5.73
820.916	5.01
821.22	4.96
821.525	4.69
821.829	4.8
822.134	4.97
822.438	4.98
822.742	5.39
823.047	5.45
823.351	5.52
823.655	5.7
823.959	5.47
824.263	5.45
824.567	5.6
824.871	5.78
825.174	5.77
825.478	6.73
825.782	6.77
826.086	6.74
826.389	6.91
826.693	7.11
826.996	7.05
827.3	7.45
827.603	7.6
827.906	7.67
828.209	7.83
828.513	7.93
828.816	6.79
829.119	6.92
829.422	6.88
829.725	6.93
830.028	6.76
830.33	6.57
830.633	6.75
830.936	6.89
831.238	6.8
831.541	6.41
831.844	6.62
832.146	6.91
832.448	6.64
832.751	6.37
833.053	6.67
833.355	6.78
833.657	6.69
833.96	6.34
834.262	6.06
834.564	6.23
834.865	6.11
835.167	6.87
835.469	6.46
835.771	6.29
836.073	6.35
836.374	6.02
836.676	5.87
836.977	5.92
837.279	5.67
837.58	6.16
837.882	6.25
838.183	6.76
838.484	5.21
838.785	5.24
839.086	5.55
839.387	5.53
839.688	5.7
839.989	6.34
840.29	7.12
840.591	7.71
840.892	7.01
841.192	7.36
841.493	6.94
841.794	8.12
842.094	9.32
842.394	9.67
842.695	9.67
842.995	9.67
843.295	9.67
843.596	9.67
843.896	9.67
844.196	9.67
844.496	9.67
844.796	9.67
845.096	9.67
845.396	9.67
845.695	9.67
845.995	6.73
846.295	9.81
846.594	9.27
846.894	9.53
847.194	8.85
847.493	9.18
847.792	9.65
848.092	10.44
848.391	9.19
848.69	11.5
848.989	11.65
849.288	9.94
849.587	9.6
849.886	10.13
850.185	11.23
850.484	12.17
850.783	12.17
851.081	12.75
851.38	12.55
851.679	13.52
851.977	12.35
852.276	11.46
852.574	12.61
852.872	11.96
853.171	11.37
853.469	10.6
853.767	10.4
854.065	10.23
854.363	8.81
854.661	8.7
854.959	8.11
855.257	6.16
855.555	4.08
855.853	2.67
856.15	3.03
856.448	2.86
856.746	3.22
857.043	2.87
857.341	4.34
857.638	7.56
857.935	6.69
858.233	4.52
858.53	6.55
858.827	10.16
859.124	8.46
859.421	7
859.718	8.51
860.015	8.22
860.312	8.6
860.609	6.49
860.905	4.64
861.202	5.27
861.499	8.12
861.795	8.51
862.092	6.28
862.388	6.29
862.684	8.78
862.981	9.78
863.277	8
863.573	9.53
863.869	10.83
864.165	8.53
864.461	8.71
864.757	6.43
865.053	6.21
865.349	8.49
865.645	9.6
865.94	9.65
866.236	7.79
866.532	9.38
866.827	8.48
867.123	8.94
867.418	10.56
867.713	8.96
868.009	9.7
868.304	7.9
868.599	5.69
868.894	5.81
869.189	4.13
869.484	5.78
869.779	5.57
870.074	6.88
870.369	7.52
870.663	7.39
870.958	7.36
871.252	5.79
871.547	7.17
871.842	9.43
872.136	7.81
872.43	7.82
872.725	7.37
873.019	6.98
873.313	7.61
873.607	4.7
873.901	4.35
874.195	6.44
874.489	8.39
874.783	6.3
875.077	4.38
875.37	8.97
875.664	9.01
875.958	9.61
876.251	10.59
876.545	9.2
876.838	10
877.132	11.28
877.425	10.25
877.718	9.65
878.011	11.04
878.305	11.92
878.598	7.88
878.891	7.73
879.184	7.16
879.476	8.74
879.769	8.2
880.062	6.59
880.355	3.27
880.647	5.72
880.94	1.61
881.232	1.98
881.525	0.6
881.817	0.57
882.11	2.08
882.402	1.67
882.694	0.78
882.986	1.39
883.278	3.21
883.57	4.25
883.862	4.41
884.154	6.12
884.446	6.53
884.738	7.17
885.03	8.18
885.321	7.85
885.613	7.88
885.904	7.73
886.196	7.77
886.487	7.87
886.779	7.66
887.07	7.24
887.361	6.98
887.652	6.74
887.943	6.39
888.234	5.64
888.525	5.59
888.816	5.27
889.107	6.29
889.398	6.7
889.689	6.64
889.979	6.48
890.27	7.46
890.56	8.3
890.851	8.86
891.141	9.4
891.432	9.74
891.722	11.1
