Data from groin2_Reflection__1__11-55-58-981.txt Node

Date: Thu Aug 04 11:55:58 AEST 2022
User: kathy
Spectrometer: JAZA2503
Trigger mode: 0
Integration Time (sec): 2.883200E-1
Scans to average: 10
Electric dark correction enabled: true
Nonlinearity correction enabled: true
Boxcar width: 5
XAxis mode: Wavelengths
Number of Pixels in Spectrum: 2048
>>>>>Begin Spectral Data<<<<<
189.467	-84.72
189.852	-164.66
190.237	-5514.17
190.622	-319.85
191.007	-34.95
191.392	27.83
191.777	735.08
192.162	-546.68
192.546	-288.48
192.931	-567.6
193.316	-275.86
193.701	-203.65
194.086	60.78
194.47	76.07
194.855	34.14
195.24	-1870.63
195.624	-137.76
196.009	907.02
196.393	532.65
196.778	-2160.43
197.163	-55.68
197.547	9.55
197.931	42.02
198.316	47.82
198.7	51.89
199.085	46.76
199.469	38.46
199.853	32.12
200.237	34.86
200.622	34.61
201.006	33.36
201.39	31.42
201.774	32.03
202.158	33.36
202.542	33.95
202.926	29.55
203.31	26.19
203.694	27.17
204.078	27.75
204.462	30.27
204.846	29.85
205.23	24.5
205.614	21.4
205.998	12.95
206.381	13.66
206.765	16.79
207.149	15.98
207.532	22.91
207.916	18.54
208.3	15.95
208.683	15.38
209.067	12.25
209.45	16.35
209.834	15.73
210.217	23.76
210.601	25.76
210.984	23.65
211.367	26.25
211.751	29.23
212.134	31.21
212.517	31.17
212.901	29.78
213.284	31.59
213.667	32.6
214.05	38.23
214.433	33.06
214.816	34.35
215.199	37.31
215.582	36.95
215.965	32.33
216.348	29.08
216.731	32.23
217.114	30.09
217.497	22.13
217.88	17.85
218.262	7.58
218.645	5.54
219.028	-2.44
219.411	-4.43
219.793	-5.43
220.176	-4.15
220.559	-3.61
220.941	-7.97
221.324	-6.58
221.706	-1.65
222.089	2.05
222.471	5.62
222.853	6.55
223.236	11.59
223.618	10.7
224	11.62
224.383	9.95
224.765	10.43
225.147	10.97
225.529	9.97
225.912	9.3
226.294	7.73
226.676	6.57
227.058	5.9
227.44	3.81
227.822	3
228.204	2.16
228.586	2.18
228.968	1.99
229.349	2.13
229.731	2.48
230.113	2.09
230.495	2.01
230.877	1.94
231.258	2.09
231.64	2.08
232.022	2.08
232.403	2.35
232.785	3.1
233.166	3.5
233.548	3.87
233.929	3.75
234.311	4.04
234.692	3.73
235.073	3.97
235.455	3.89
235.836	4.12
236.217	4.32
236.599	4.16
236.98	3.35
237.361	2.79
237.742	2.1
238.123	1.75
238.504	1.84
238.885	1.98
239.266	1.86
239.647	1.76
240.028	1.76
240.409	1.65
240.79	1.71
241.171	1.74
241.552	1.76
241.933	1.78
242.313	1.99
242.694	1.82
243.075	2.08
243.456	2.03
243.836	2.17
244.217	2.08
244.597	2.1
244.978	2.12
245.358	2.19
245.739	2.14
246.119	1.98
246.5	1.85
246.88	1.82
247.26	1.62
247.641	1.55
248.021	1.5
248.401	1.5
248.781	1.49
249.162	1.42
249.542	1.38
249.922	1.46
250.302	1.59
250.682	1.55
251.062	1.62
251.442	1.67
251.822	1.78
252.202	1.79
252.582	1.82
252.961	1.79
253.341	1.87
253.721	1.92
254.101	1.79
254.48	1.72
254.86	1.67
255.24	1.68
255.619	1.78
255.999	1.58
256.378	1.43
256.758	1.47
257.137	1.49
257.517	1.38
257.896	1.37
258.276	1.37
258.655	1.32
259.034	1.29
259.414	1.21
259.793	1.12
260.172	1.18
260.551	1.18
260.93	1.13
261.309	1.05
261.688	1.13
262.068	1.09
262.447	1.12
262.825	1.11
263.204	1.14
263.583	1.23
263.962	1.27
264.341	1.29
264.72	1.33
265.099	1.33
265.477	1.37
265.856	1.28
266.235	1.18
266.613	1.05
266.992	1.08
267.371	1.11
267.749	1.12
268.128	1.1
268.506	1.07
268.884	1.1
269.263	1.03
269.641	1
270.02	1.01
270.398	1.06
270.776	1.17
271.154	1.2
271.533	1.18
271.911	1.07
272.289	1.03
272.667	1.02
273.045	0.99
273.423	1.07
273.801	1.07
274.179	1.03
274.557	0.98
274.935	0.96
275.313	0.86
275.69	0.83
276.068	0.85
276.446	0.9
276.824	0.94
277.201	0.97
277.579	0.99
277.957	1.03
278.334	1.09
278.712	1.13
279.089	1.14
279.467	1.27
279.844	1.37
280.222	1.4
280.599	1.42
280.976	1.34
281.354	1.26
281.731	1.25
282.108	1.28
282.485	1.24
282.863	1.26
283.24	1.26
283.617	1.2
283.994	1.15
284.371	1.14
284.748	1.15
285.125	1.2
285.502	1.22
285.879	1.2
286.256	1.21
286.633	1.29
287.009	1.33
287.386	1.36
287.763	1.45
288.139	1.51
288.516	1.58
288.893	1.62
289.269	1.63
289.646	1.72
290.022	1.78
290.399	1.78
290.775	1.79
291.152	1.81
291.528	1.84
291.904	1.85
292.281	1.87
292.657	1.92
293.033	2
293.41	2.11
293.786	2.18
294.162	2.27
294.538	2.42
294.914	2.56
295.29	2.67
295.666	2.84
296.042	2.97
296.418	3.1
296.794	3.23
297.17	3.35
297.546	3.47
297.921	3.56
298.297	3.69
298.673	3.79
299.048	3.89
299.424	4.01
299.8	4.1
300.175	4.23
300.551	4.37
300.926	4.49
301.302	4.61
301.677	4.74
302.053	4.92
302.428	5.01
302.803	5.11
303.179	5.22
303.554	5.34
303.929	5.46
304.304	5.54
304.68	5.6
305.055	5.69
305.43	5.77
305.805	5.83
306.18	5.87
306.555	5.97
306.93	6.06
307.305	6.11
307.679	6.15
308.054	6.16
308.429	6.18
308.804	6.22
309.179	6.24
309.553	6.25
309.928	6.29
310.303	6.36
310.677	6.42
311.052	6.47
311.426	6.51
311.801	6.57
312.175	6.63
312.55	6.72
312.924	6.76
313.298	6.8
313.673	6.89
314.047	6.92
314.421	6.9
314.795	6.92
315.17	6.94
315.544	7.01
315.918	7.08
316.292	7.14
316.666	7.21
317.04	7.34
317.414	7.46
317.788	7.51
318.162	7.62
318.535	7.78
318.909	7.91
319.283	8.02
319.657	8.15
320.03	8.27
320.404	8.45
320.778	8.76
321.151	9.21
321.525	9.7
321.898	10.25
322.272	10.85
322.645	11.49
323.019	12.22
323.392	12.97
323.765	13.9
324.139	14.82
324.512	15.78
324.885	16.72
325.258	17.64
325.632	18.46
326.005	19.13
326.378	19.78
326.751	20.26
327.124	20.68
327.497	20.93
327.87	21.09
328.243	21.21
328.616	21.4
328.988	21.51
329.361	21.49
329.734	21.5
330.107	21.47
330.479	21.5
330.852	21.45
331.225	21.32
331.597	21.14
331.97	20.96
332.342	20.7
332.715	20.45
333.087	20.21
333.46	20.09
333.832	20.04
334.204	19.94
334.577	19.91
334.949	19.81
335.321	19.73
335.693	19.56
336.065	19.39
336.438	19.21
336.81	19.09
337.182	18.94
337.554	18.84
337.926	18.73
338.298	18.6
338.669	18.42
339.041	18.31
339.413	18.22
339.785	18.1
340.157	17.99
340.528	17.86
340.9	17.77
341.272	17.68
341.643	17.63
342.015	17.67
342.386	17.8
342.758	17.92
343.129	18.07
343.501	18.23
343.872	18.31
344.243	18.3
344.615	18.3
344.986	18.3
345.357	18.26
345.728	18.28
346.099	18.31
346.471	18.28
346.842	18.22
347.213	18.19
347.584	18.18
347.955	18.16
348.326	18.08
348.697	18.04
349.067	18.03
349.438	18.04
349.809	18.08
350.18	18.17
350.55	18.21
350.921	18.26
351.292	18.33
351.662	18.38
352.033	18.41
352.403	18.48
352.774	18.54
353.144	18.55
353.515	18.58
353.885	18.6
354.255	18.64
354.626	18.64
354.996	18.66
355.366	18.67
355.736	18.68
356.107	18.67
356.477	18.66
356.847	18.61
357.217	18.63
357.587	18.6
357.957	18.6
358.327	18.58
358.697	18.63
359.066	18.62
359.436	18.6
359.806	18.62
360.176	18.66
360.546	18.66
360.915	18.68
361.285	18.7
361.654	18.71
362.024	18.75
362.393	18.78
362.763	18.76
363.132	18.79
363.502	18.81
363.871	18.83
364.24	18.86
364.61	18.91
364.979	18.95
365.348	19
365.717	19.05
366.087	19.07
366.456	19.11
366.825	19.18
367.194	19.24
367.563	19.32
367.932	19.38
368.301	19.42
368.669	19.47
369.038	19.52
369.407	19.55
369.776	19.6
370.145	19.67
370.513	19.69
370.882	19.73
371.25	19.79
371.619	19.85
371.988	19.9
372.356	19.97
372.724	20.02
373.093	20.08
373.461	20.15
373.83	20.21
374.198	20.27
374.566	20.34
374.934	20.38
375.303	20.43
375.671	20.46
376.039	20.53
376.407	20.61
376.775	20.67
377.143	20.74
377.511	20.81
377.879	20.87
378.247	20.97
378.615	21.08
378.982	21.19
379.35	21.29
379.718	21.39
380.086	21.48
380.453	21.55
380.821	21.65
381.188	21.73
381.556	21.82
381.923	21.93
382.291	22
382.658	22.06
383.026	22.14
383.393	22.22
383.76	22.35
384.128	22.44
384.495	22.56
384.862	22.68
385.229	22.8
385.596	22.92
385.963	23.02
386.33	23.1
386.697	23.23
387.064	23.35
387.431	23.41
387.798	23.5
388.165	23.6
388.532	23.66
388.899	23.7
389.265	23.77
389.632	23.83
389.999	23.88
390.365	23.95
390.732	24.01
391.098	24.05
391.465	24.13
391.831	24.16
392.198	24.21
392.564	24.28
392.93	24.35
393.297	24.39
393.663	24.46
394.029	24.55
394.395	24.64
394.762	24.72
395.128	24.81
395.494	24.87
395.86	24.96
396.226	25.03
396.592	25.12
396.958	25.19
397.323	25.29
397.689	25.37
398.055	25.43
398.421	25.47
398.787	25.53
399.152	25.6
399.518	25.69
399.883	25.76
400.249	25.84
400.615	25.9
400.98	25.96
401.345	26
401.711	26.03
402.076	26.07
402.442	26.1
402.807	26.12
403.172	26.17
403.537	26.17
403.902	26.21
404.268	26.21
404.633	26.22
404.998	26.28
405.363	26.3
405.728	26.34
406.093	26.4
406.457	26.45
406.822	26.51
407.187	26.55
407.552	26.6
407.917	26.62
408.281	26.69
408.646	26.76
409.011	26.77
409.375	26.82
409.74	26.89
410.104	26.93
410.469	26.97
410.833	27.01
411.197	27.05
411.562	27.1
411.926	27.13
412.29	27.16
412.655	27.18
413.019	27.22
413.383	27.28
413.747	27.33
414.111	27.37
414.475	27.43
414.839	27.48
415.203	27.53
415.567	27.59
415.931	27.67
416.295	27.73
416.658	27.77
417.022	27.8
417.386	27.82
417.749	27.82
418.113	27.83
418.477	27.81
418.84	27.83
419.204	27.86
419.567	27.85
419.931	27.86
420.294	27.89
420.657	27.93
421.021	27.97
421.384	28.04
421.747	28.09
422.11	28.17
422.473	28.23
422.836	28.25
423.199	28.24
423.562	28.26
423.925	28.27
424.288	28.24
424.651	28.26
425.014	28.26
425.377	28.27
425.74	28.28
426.102	28.27
426.465	28.31
426.828	28.33
427.19	28.37
427.553	28.44
427.916	28.48
428.278	28.53
428.641	28.55
429.003	28.57
429.365	28.56
429.728	28.58
430.09	28.58
430.452	28.54
430.814	28.53
431.177	28.52
431.539	28.51
431.901	28.53
432.263	28.54
432.625	28.55
432.987	28.6
433.349	28.65
433.711	28.7
434.072	28.78
434.434	28.86
434.796	28.98
435.158	29.08
435.519	29.15
435.881	29.22
436.243	29.28
436.604	29.33
436.966	29.39
437.327	29.42
437.689	29.42
438.05	29.43
438.411	29.47
438.773	29.48
439.134	29.49
439.495	29.53
439.856	29.53
440.218	29.56
440.579	29.61
440.94	29.63
441.301	29.68
441.662	29.74
442.023	29.8
442.384	29.83
442.745	29.88
443.105	29.9
443.466	29.93
443.827	29.98
444.188	30
444.548	30.01
444.909	30.04
445.269	30.06
445.63	30.1
445.99	30.08
446.351	30.11
446.711	30.09
447.072	30.12
447.432	30.15
447.792	30.2
448.153	30.22
448.513	30.25
448.873	30.25
449.233	30.21
449.593	30.22
449.953	30.26
450.313	30.26
450.673	30.27
451.033	30.28
451.393	30.28
451.753	30.27
452.113	30.79
452.472	30.78
452.832	30.78
453.192	30.79
453.551	30.76
453.911	30.77
454.271	30.77
454.63	30.79
454.989	30.82
455.349	30.84
455.708	30.83
456.068	30.57
456.427	30.6
456.786	30.63
457.145	30.68
457.505	30.74
457.864	30.84
458.223	30.94
458.582	31.05
458.941	31.15
459.3	31.24
459.659	31.3
460.018	31.37
460.376	31.42
460.735	31.45
461.094	31.49
461.453	31.53
461.811	31.53
462.17	31.52
462.529	31.52
462.887	31.5
463.246	31.51
463.604	31.57
463.963	31.6
464.321	31.55
464.679	31.59
465.038	31.63
465.396	31.68
465.754	31.74
466.112	31.8
466.47	31.87
466.828	31.96
467.186	32.05
467.544	32.11
467.902	32.18
468.26	32.4
468.618	32.49
468.976	32.56
469.334	32.61
469.692	32.65
470.049	32.68
470.407	32.68
470.765	32.68
471.122	32.72
471.48	32.78
471.837	32.86
472.195	32.93
472.552	33.03
472.909	33.13
473.267	33.22
473.624	33.32
473.981	33.42
474.338	33.52
474.696	33.62
475.053	33.69
475.41	33.78
475.767	33.83
476.124	33.91
476.481	33.96
476.838	34
477.194	34.08
477.551	34.16
477.908	34.22
478.265	34.27
478.621	34.35
478.978	34.45
479.335	34.54
479.691	34.65
480.048	34.73
480.404	34.83
480.761	34.94
481.117	35.03
481.473	35.11
481.83	35.2
482.186	35.28
482.542	35.37
482.898	35.46
483.255	35.54
483.611	35.61
483.967	35.71
484.323	35.82
484.679	35.9
485.035	35.98
485.39	36.07
485.746	36.17
486.102	36.25
486.458	36.33
486.814	36.43
487.169	36.52
487.525	36.62
487.88	36.71
488.236	36.76
488.591	36.85
488.947	36.91
489.302	36.97
489.658	37.02
490.013	37.1
490.368	37.13
490.723	37.17
491.079	37.22
491.434	37.27
491.789	37.34
492.144	37.4
492.499	37.47
492.854	37.56
493.209	37.65
493.564	37.75
493.919	37.83
494.273	37.92
494.628	38.01
494.983	38.08
495.338	38.15
495.692	38.2
496.047	38.26
496.401	38.27
496.756	38.29
497.11	38.29
497.465	38.32
497.819	38.34
498.173	38.41
498.528	38.48
498.882	38.56
499.236	38.65
499.59	38.78
499.944	38.92
500.298	39.05
500.652	39.16
501.006	39.26
501.36	39.31
501.714	39.39
502.068	39.43
502.422	39.49
502.776	39.56
503.129	39.63
503.483	39.71
503.837	39.79
504.19	39.89
504.544	39.95
504.897	40.01
505.251	40.07
505.604	40.09
505.958	40.12
506.311	40.13
506.664	40.12
507.017	40.08
507.371	40.02
507.724	39.93
508.077	39.87
508.43	39.87
508.783	39.87
509.136	39.91
509.489	39.99
509.842	40.04
510.195	40.09
510.547	40.13
510.9	40.18
511.253	40.23
511.606	40.28
511.958	40.29
512.311	40.3
512.663	40.29
513.016	40.28
513.368	40.25
513.721	40.23
514.073	40.24
514.425	40.25
514.778	40.26
515.13	40.28
515.482	40.29
515.834	40.33
516.186	40.37
516.538	40.45
516.89	40.55
517.242	40.66
517.594	40.76
517.946	40.83
518.298	40.92
518.65	41.01
519.001	41.05
519.353	41.1
519.705	41.13
520.056	41.17
520.408	41.13
520.759	41.09
521.111	41.07
521.462	41.07
521.814	41.11
522.165	41.13
522.516	41.13
522.868	41.18
523.219	41.23
523.57	41.26
523.921	41.27
524.272	41.3
524.623	41.32
524.974	41.32
525.325	41.33
525.676	41.3
526.027	41.22
526.378	41.25
526.728	41.25
527.079	41.23
527.43	41.24
527.78	41.25
528.131	41.3
528.481	41.33
528.832	41.36
529.182	41.38
529.533	41.44
529.883	41.51
530.233	41.52
530.584	41.54
530.934	41.54
531.284	41.56
531.634	41.57
531.984	41.57
532.334	41.58
532.684	41.58
533.034	41.6
533.384	41.6
533.734	41.62
534.084	41.63
534.434	41.66
534.783	41.7
535.133	41.67
535.483	41.64
535.832	41.65
536.182	41.61
536.531	41.61
536.881	41.58
537.23	41.58
537.58	41.55
537.929	41.51
538.278	42.04
538.628	41.97
538.977	41.95
539.326	41.96
539.675	41.98
540.024	41.99
540.373	41.98
540.722	41.96
541.071	41.94
541.42	41.97
541.769	41.98
542.117	41.42
542.466	41.46
542.815	41.5
543.163	41.5
543.512	41.48
543.861	41.47
544.209	41.46
544.558	41.46
544.906	41.44
545.254	41.41
545.603	41.39
545.951	41.43
546.299	41.49
546.647	41.51
546.996	41.54
547.344	41.55
547.692	41.56
548.04	41.57
548.388	41.59
548.736	41.62
549.083	41.65
549.431	41.65
549.779	41.58
550.127	41.54
550.475	41.5
550.822	41.42
551.17	41.43
551.517	41.42
551.865	41.42
552.212	41.46
552.56	41.46
552.907	41.45
553.254	41.46
553.602	41.46
553.949	41.45
554.296	41.43
554.643	41.44
554.99	41.38
555.337	41.33
555.684	41.28
556.031	41.21
556.378	41.19
556.725	41.14
557.072	41.1
557.419	41.1
557.765	41.08
558.112	41.1
558.459	41.1
558.805	41.12
559.152	41.14
559.498	41.13
559.845	41.12
560.191	41.07
560.538	41.06
560.884	41.06
561.23	41.04
561.576	41
561.923	40.91
562.269	40.92
562.615	40.89
562.961	40.84
563.307	40.85
563.653	40.87
563.999	40.85
564.344	40.86
564.69	40.89
565.036	40.87
565.382	40.89
565.727	40.9
566.073	40.83
566.419	40.83
566.764	40.83
567.11	40.82
567.455	40.79
567.8	40.78
568.146	40.69
568.491	40.6
568.836	40.58
569.181	40.52
569.527	40.52
569.872	40.53
570.217	40.48
570.562	40.44
570.907	40.42
571.252	40.41
571.597	40.42
571.941	40.42
572.286	40.45
572.631	40.46
572.976	40.46
573.32	40.46
573.665	40.47
574.009	40.47
574.354	40.47
574.698	40.47
575.043	40.46
575.387	40.46
575.731	40.45
576.076	40.46
576.42	40.46
576.764	40.41
577.108	40.4
577.452	40.4
577.796	40.39
578.14	40.37
578.484	40.34
578.828	40.3
579.172	40.26
579.516	40.24
579.86	40.15
580.203	40.14
580.547	40.11
580.891	40.06
581.234	40.05
581.578	40.04
581.921	39.95
582.264	39.92
582.608	39.88
582.951	39.84
583.294	39.82
583.638	39.81
583.981	39.76
584.324	39.75
584.667	39.73
585.01	39.67
585.353	39.65
585.696	39.65
586.039	39.65
586.382	39.65
586.725	39.65
587.067	39.65
587.41	39.65
587.753	39.61
588.095	39.6
588.438	39.56
588.781	39.55
589.123	39.54
589.465	39.54
589.808	39.56
590.15	39.56
590.492	39.55
590.835	39.51
591.177	39.48
591.519	39.46
591.861	39.44
592.203	39.42
592.545	39.41
592.887	39.41
593.229	39.37
593.571	39.34
593.913	39.32
594.254	39.31
594.596	39.3
594.938	39.29
595.279	39.26
595.621	39.2
595.963	39.19
596.304	39.18
596.645	39.17
596.987	39.14
597.328	39.1
597.669	39.07
598.011	39.06
598.352	39.06
598.693	39.06
599.034	39.06
599.375	39.05
599.716	39.04
600.057	39.01
600.398	38.96
600.739	38.95
601.08	38.92
601.42	38.88
601.761	38.85
602.102	38.82
602.442	38.81
602.783	38.81
603.123	38.81
603.464	38.8
603.804	38.78
604.145	38.72
604.485	38.73
604.825	38.71
605.166	38.68
605.506	38.65
605.846	38.63
606.186	38.56
606.526	38.52
606.866	38.49
607.206	38.47
607.546	38.43
607.886	38.42
608.225	38.39
608.565	38.33
608.905	38.33
609.245	38.33
609.584	38.29
609.924	38.25
610.263	38.22
610.603	38.2
610.942	38.16
611.281	38.15
611.621	38.09
611.96	38.05
612.299	38.03
612.638	38.03
612.978	37.98
613.317	37.95
613.656	37.93
613.995	37.88
614.334	37.89
614.672	37.79
615.011	37.78
615.35	37.74
615.689	37.73
616.027	37.73
616.366	37.69
616.705	37.66
617.043	37.65
617.382	37.59
617.72	37.54
618.059	37.5
618.397	37.44
618.735	37.39
619.073	37.33
619.412	37.33
619.75	37.31
620.088	37.21
620.426	37.21
620.764	37.16
621.102	37.15
621.44	37.13
621.778	37.11
622.115	37.06
622.453	37.02
622.791	37.02
623.129	36.93
623.466	36.92
623.804	36.89
624.141	36.82
624.479	36.77
624.816	36.74
625.153	36.67
625.491	36.66
625.828	36.64
626.165	36.63
626.502	36.63
626.84	36.57
627.177	36.57
627.514	36.53
627.851	36.52
628.188	36.45
628.524	36.4
628.861	36.36
629.198	36.35
629.535	36.35
629.871	36.33
630.208	36.32
630.545	36.28
630.881	36.17
631.218	36.07
631.554	35.93
631.89	35.9
632.227	35.82
632.563	35.75
632.899	35.66
633.235	35.61
633.572	35.52
633.908	35.42
634.244	35.35
634.58	35.26
634.916	35.22
635.251	35.2
635.587	35.17
635.923	35.08
636.259	35.02
636.595	34.96
636.93	34.88
637.266	34.9
637.601	34.84
637.937	34.81
638.272	34.8
638.608	34.74
638.943	34.67
639.278	34.56
639.613	34.56
639.949	34.54
640.284	34.49
640.619	34.47
640.954	34.32
641.289	34.27
641.624	34.25
641.959	34.13
642.294	34.07
642.628	34.06
642.963	34.02
643.298	33.91
643.632	33.87
643.967	33.81
644.302	33.69
644.636	33.66
644.971	33.55
645.305	33.41
645.639	33.43
645.974	33.35
646.308	33.24
646.642	33.15
646.976	33.05
647.31	32.9
647.644	32.83
647.978	32.78
648.312	32.72
648.646	32.71
648.98	32.77
649.314	32.71
649.647	32.67
649.981	32.65
650.315	32.6
650.648	32.54
650.982	32.52
651.315	32.52
651.649	32.42
651.982	32.38
652.316	32.31
652.649	32.2
652.982	32.12
653.315	32.09
653.648	32.11
653.982	32.11
654.315	32.03
654.648	31.94
654.981	31.81
655.313	31.82
655.646	31.75
655.979	31.75
656.312	31.66
656.644	31.57
656.977	31.52
657.31	31.38
657.642	31.27
657.975	31.25
658.307	31.24
658.64	31.19
658.972	31.11
659.304	31.02
659.636	30.86
659.969	30.76
660.301	30.7
660.633	30.62
660.965	30.57
661.297	30.55
661.629	30.52
661.961	30.43
662.292	30.38
662.624	30.31
662.956	30.27
663.288	30.29
663.619	30.32
663.951	30.31
664.282	30.3
664.614	30.24
664.945	30.13
665.276	30.02
665.608	29.92
665.939	29.84
666.27	29.76
666.601	29.61
666.933	29.56
667.264	29.46
667.595	29.35
667.926	29.25
668.256	29.16
668.587	29.13
668.918	29.16
669.249	29.24
669.58	29.22
669.91	29.2
670.241	29.27
670.571	29.18
670.902	29.13
671.232	29.08
671.563	29.03
671.893	29.08
672.223	29.04
672.554	28.94
672.884	28.85
673.214	28.82
673.544	28.73
673.874	28.62
674.204	28.57
674.534	28.48
674.864	28.45
675.194	28.31
675.524	28.19
675.853	28.13
676.183	28
676.513	27.88
676.842	27.8
677.172	27.73
677.501	27.72
677.831	27.63
678.16	27.6
678.489	27.61
678.819	27.6
679.148	27.57
679.477	27.51
679.806	27.52
680.135	27.44
680.464	27.37
680.793	27.41
681.122	27.3
681.451	27.25
681.78	27.21
682.108	27.05
682.437	27.01
682.766	26.85
683.094	26.83
683.423	26.77
683.751	26.75
684.08	26.67
684.408	26.56
684.737	26.52
685.065	26.43
685.393	26.38
685.721	26.34
686.049	26.35
686.377	26.44
686.705	26.31
687.033	26.26
687.361	26.26
687.689	26.3
688.017	26.29
688.345	26.25
688.673	26.29
689.0	26.24
689.328	26.29
689.655	26.26
689.983	26.25
690.31	26.3
690.638	26.33
690.965	26.2
691.292	26.08
691.62	25.99
691.947	25.89
692.274	25.74
692.601	25.69
692.928	25.5
693.255	25.31
693.582	25.2
693.909	25.1
694.236	25.02
694.562	25.02
694.889	24.98
695.216	24.98
695.542	25.03
695.869	25.02
696.196	24.99
696.522	24.99
696.848	24.99
697.175	24.86
697.501	24.78
697.827	24.78
698.154	24.71
698.48	24.69
698.806	24.68
699.132	24.57
699.458	24.62
699.784	24.57
700.11	24.53
700.435	24.51
700.761	24.48
701.087	24.4
701.413	24.31
701.738	24.21
702.064	24.09
702.389	23.99
702.715	24.03
703.04	23.96
703.366	23.9
703.691	23.91
704.016	23.77
704.341	23.74
704.666	23.81
704.992	23.72
705.317	23.77
705.642	23.71
705.967	23.56
706.291	23.51
706.616	23.47
706.941	23.56
707.266	23.64
707.59	23.87
707.915	23.9
708.24	23.86
708.564	23.82
708.889	23.84
709.213	23.96
709.537	24.07
709.862	23.97
710.186	23.74
710.51	23.56
710.834	23.41
711.158	23.26
711.482	23.21
711.806	23.05
712.13	22.93
712.454	22.85
712.778	22.84
713.102	22.73
713.426	22.72
713.749	22.73
714.073	22.8
714.396	22.72
714.72	22.64
715.043	22.49
715.367	22.49
715.69	22.55
716.013	22.52
716.337	22.29
716.66	22.26
716.983	22.32
717.306	22.33
717.629	22.21
717.952	22.23
718.275	22.17
718.598	22.04
718.921	22.08
719.243	22.12
719.566	22.14
719.889	22.24
720.211	22.18
720.534	22.03
720.856	22
721.179	22
721.501	21.96
721.823	22.02
722.146	22.21
722.468	22.26
722.79	22.19
723.112	22.1
723.434	22.08
723.756	22.08
724.078	22.07
724.4	21.98
724.722	21.92
725.044	21.79
725.366	21.61
725.687	21.5
726.009	21.31
726.33	21.31
726.652	21.33
726.973	21.08
727.295	21.07
727.616	21.08
727.938	21.12
728.259	21.09
728.58	21
728.901	21
729.222	20.96
729.543	20.96
729.864	20.89
730.185	20.64
730.506	20.75
730.827	20.63
731.148	20.42
731.468	20.15
731.789	20.19
732.11	20.11
732.43	20.03
732.751	20.1
733.071	20.14
733.392	20.12
733.712	20.22
734.032	20.34
734.352	20.45
734.673	20.51
734.993	20.75
735.313	20.65
735.633	21.06
735.953	21.22
736.273	21.25
736.593	21.21
736.912	21.26
737.232	21.29
737.552	21.15
737.871	21.03
738.191	21.25
738.51	21.37
738.83	21.51
739.149	21.25
739.469	21.24
739.788	21.01
740.107	20.87
740.426	20.74
740.746	20.6
741.065	20.59
741.384	20.7
741.703	20.38
742.022	20
742.341	20.05
742.659	19.97
742.978	19.58
743.297	19.74
743.615	19.8
743.934	19.77
744.253	19.68
744.571	19.64
744.89	19.59
745.208	19.67
745.526	19.87
745.845	19.48
746.163	19.38
746.481	19.93
746.799	19.9
747.117	19.94
747.435	20.31
747.753	20.66
748.071	20.64
748.389	20.5
748.706	20.35
749.024	20.14
749.342	20.29
749.659	20.25
749.977	19.63
750.295	19.59
750.612	19.33
750.929	18.95
751.247	18.98
751.564	18.86
751.881	18.84
752.198	19.23
752.516	19.36
752.833	19.54
753.15	19.47
753.467	19.48
753.783	19.3
754.1	19.57
754.417	19.55
754.734	19.25
755.05	19.41
755.367	19.53
755.684	19.44
756.0	19.24
756.317	19.03
756.633	19.13
756.949	19.45
757.266	19.68
757.582	19.52
757.898	19.43
758.214	19.48
758.53	19.45
758.846	19.25
759.162	18.95
759.478	18.95
759.794	18.89
760.11	18.97
760.426	18.65
760.741	18.41
761.057	18.19
761.372	18.09
761.688	18.1
762.003	18.09
762.319	18.15
762.634	18.27
762.949	18.42
763.265	18.24
763.58	17.98
763.895	18.06
764.21	18.01
764.525	17.99
764.84	18.11
765.155	17.88
765.47	17.82
765.785	17.67
766.099	17.76
766.414	17.61
766.729	17.51
767.043	17.7
767.358	17.53
767.672	17.29
767.987	17.4
768.301	17.41
768.615	17.73
768.929	17.62
769.244	17.89
769.558	18.16
769.872	18.21
770.186	18.41
770.5	18.18
770.814	18.12
771.127	18.45
771.441	18.4
771.755	18.43
772.069	18.17
772.382	18.05
772.696	17.9
773.009	17.37
773.323	17.47
773.636	17.31
773.95	17.54
774.263	18.17
774.576	17.98
774.889	18.18
775.202	18.1
775.515	18.04
775.828	17.93
776.141	18.03
776.454	17.99
776.767	17.77
777.08	17.83
777.393	17.56
777.705	17.23
778.018	17.32
778.33	17.42
778.643	17.57
778.955	17.41
779.268	17.51
779.58	17.36
779.892	17.33
780.205	17.45
780.517	17.55
780.829	18
781.141	18.45
781.453	18.2
781.765	18.16
782.077	17.53
782.388	17.78
782.7	17.86
783.012	18.04
783.324	17.89
783.635	17.67
783.947	17.37
784.258	16.8
784.57	16.22
784.881	16.66
785.192	15.61
785.504	15.96
785.815	15.8
786.126	15.76
786.437	15.71
786.748	15.7
787.059	15.71
787.37	15.91
787.681	15.85
787.992	16.07
788.302	16.24
788.613	17.16
788.924	17
789.234	17.42
789.545	17.43
789.855	17.1
790.166	17.22
790.476	17.45
790.786	17.6
791.096	17.93
791.407	18.04
791.717	17.98
792.027	17.74
792.337	18.13
792.647	17.58
792.957	17.66
793.266	17.41
793.576	17
793.886	16.47
794.196	16.44
794.505	19.03
794.815	18.41
795.124	17.98
795.434	18.06
795.743	17.13
796.052	17.34
796.362	17.48
796.671	17.94
796.98	18.58
797.289	18.87
797.598	18.71
797.907	16.09
798.216	16.72
798.525	16.83
798.834	16.75
799.142	17.86
799.451	17.89
799.76	17.8
800.068	18.04
800.377	18.21
800.685	18.78
800.994	18.77
801.302	18.68
801.61	18.06
801.918	17.82
802.227	18.07
802.535	17.79
802.843	17.6
803.151	16.97
803.459	16.46
803.767	16.01
804.074	15.23
804.382	14.85
804.69	15.89
804.998	16.07
805.305	16.2
805.613	16.09
805.92	15.62
806.228	15.58
806.535	15.35
806.842	15.25
807.15	15.54
807.457	15.54
807.764	15.88
808.071	14.93
808.378	15.48
808.685	15.88
808.992	16.03
809.299	16.56
809.605	16.94
809.912	18.14
810.219	18.57
810.525	18.5
810.832	18.56
811.138	18.68
811.445	18
811.751	17.15
812.058	16.81
812.364	16.25
812.67	15.65
812.976	15.41
813.282	14.47
813.588	14
813.894	13.64
814.2	13.5
814.506	13.23
814.812	13.62
815.118	13.99
815.423	13.75
815.729	14.16
816.035	14.21
816.34	14.05
816.646	14.92
816.951	15.44
817.256	15.76
817.562	16.27
817.867	15.96
818.172	16.41
818.477	16.26
818.782	16.35
819.087	16.41
819.392	16.51
819.697	15.97
820.002	15.39
820.306	14.97
820.611	14.56
820.916	14.48
821.22	15.01
821.525	14.43
821.829	14.88
822.134	14.95
822.438	14.87
822.742	14.93
823.047	15.24
823.351	15.29
823.655	15.39
823.959	15.29
824.263	15.22
824.567	15.1
824.871	15.31
825.174	15.25
825.478	16.45
825.782	16.63
826.086	16.81
826.389	16.92
826.693	17.02
826.996	17.06
827.3	17.21
827.603	17.34
827.906	17.6
828.209	17.89
828.513	18.14
828.816	16.79
829.119	16.81
829.422	16.69
829.725	16.5
830.028	16.21
830.33	15.82
830.633	15.73
830.936	15.78
831.238	15.33
831.541	14.85
831.844	14.43
832.146	14.44
832.448	14.43
832.751	14.45
833.053	14.97
833.355	15.69
833.657	16.02
833.96	16.46
834.262	16.28
834.564	16.53
834.865	16.62
835.167	17.59
835.469	17.5
835.771	16.84
836.073	15.92
836.374	15.4
836.676	14.7
836.977	14.95
837.279	14.91
837.58	14.8
837.882	15.23
838.183	15.43
838.484	14.5
838.785	13.97
839.086	14.37
839.387	15.61
839.688	16.23
839.989	16.88
840.29	16.84
840.591	17.29
840.892	17.3
841.192	17.56
841.493	17.25
841.794	17.56
842.094	17.99
842.394	17.88
842.695	4.81
842.995	2.35
843.295	2.32
843.596	2.14
843.896	0.7
844.196	0.31
844.496	0.31
844.796	0.31
845.096	0.31
845.396	0.31
845.695	0.31
845.995	18.21
846.295	20.24
846.594	19.72
846.894	20.75
847.194	19.99
847.493	20.91
847.792	20.23
848.092	19.21
848.391	17.51
848.69	19.14
848.989	16.9
849.288	15.14
849.587	14.02
849.886	14.23
850.185	13.77
850.484	15.79
850.783	14.07
851.081	17.52
851.38	19.3
851.679	20.88
851.977	21.31
852.276	22.57
852.574	24.88
852.872	24.96
853.171	23.9
853.469	21.63
853.767	18.99
854.065	18.36
854.363	15.33
854.661	14.76
854.959	13.86
855.257	12.28
855.555	10.57
855.853	9.6
856.15	9.19
856.448	10.01
856.746	11.57
857.043	12.81
857.341	17.89
857.638	22.53
857.935	21.88
858.233	21.65
858.53	22.76
858.827	27.14
859.124	26.16
859.421	27.27
859.718	27.46
860.015	28.1
860.312	28.62
860.609	25.78
860.905	23.05
861.202	23.35
861.499	23.97
861.795	24.15
862.092	20.35
862.388	18.76
862.684	18.81
862.981	17.83
863.277	14.62
863.573	14.84
863.869	14.94
864.165	11.37
864.461	11.86
864.757	9.81
865.053	8.56
865.349	9.88
865.645	9.33
865.94	9
866.236	7.47
866.532	9.56
866.827	8.45
867.123	7.31
867.418	9.78
867.713	7.57
868.009	8.49
868.304	10.73
868.599	9.85
868.894	12.97
869.189	13.21
869.484	16.33
869.779	17.4
870.074	19.45
870.369	22.65
870.663	23.17
870.958	24.7
871.252	24.42
871.547	24.14
871.842	24.72
872.136	24.06
872.43	23.12
872.725	23.47
873.019	23.85
873.313	23.21
873.607	19.74
873.901	18.65
874.195	19.41
874.489	19.94
874.783	17.93
875.077	16.64
875.37	20.07
875.664	20.93
875.958	20.71
876.251	19.35
876.545	18.74
876.838	18.15
877.132	18.95
877.425	18.37
877.718	16.35
878.011	16
878.305	16.66
878.598	12.85
878.891	13.27
879.184	14.24
879.476	15.59
879.769	14.82
880.062	15.06
880.355	12.99
880.647	11.71
880.94	11.65
881.232	11.17
881.525	10.94
881.817	10.65
882.11	9.53
882.402	8.39
882.694	6.55
882.986	7.18
883.278	8.04
883.57	9.73
883.862	10.99
884.154	11.91
884.446	12.17
884.738	13.14
885.03	13.26
885.321	13.66
885.613	13.92
885.904	14.51
886.196	15.14
886.487	15.65
886.779	15.07
887.07	15.06
887.361	14.62
887.652	15.29
887.943	14.74
888.234	14.86
888.525	14.6
888.816	13.84
889.107	14.56
889.398	14.58
889.689	15.08
889.979	15.4
890.27	15.42
890.56	16.84
890.851	16.58
891.141	17.06
891.432	17.84
891.722	19.59
