Data from thigh1_Reflection__1__12-10-43-742.txt Node

Date: Thu Aug 04 12:10:43 AEST 2022
User: kathy
Spectrometer: JAZA2503
Trigger mode: 0
Integration Time (sec): 2.883200E-1
Scans to average: 10
Electric dark correction enabled: true
Nonlinearity correction enabled: true
Boxcar width: 5
XAxis mode: Wavelengths
Number of Pixels in Spectrum: 2048
>>>>>Begin Spectral Data<<<<<
189.467	-97.4
189.852	-217.47
190.237	-5698.6
190.622	-222.51
191.007	-51.87
191.392	11.35
191.777	420.8
192.162	-406.1
192.546	-274.43
192.931	-513.78
193.316	-396.06
193.701	-384.45
194.086	115.08
194.47	109.39
194.855	-20.77
195.24	-1793.49
195.624	-285.81
196.009	894.21
196.393	440.92
196.778	-2447.57
197.163	-150
197.547	-53.57
197.931	-3.65
198.316	25.27
198.7	24.56
199.085	34.28
199.469	26.09
199.853	25.87
200.237	29.74
200.622	20.63
201.006	17
201.39	14.96
201.774	12.91
202.158	14.83
202.542	10.07
202.926	2.79
203.31	-6.89
203.694	-8.9
204.078	-18.58
204.462	-23.85
204.846	-20.48
205.23	-19.83
205.614	-23.07
205.998	-29.44
206.381	-29.69
206.765	-28.92
207.149	-23.79
207.532	-13.6
207.916	-6.63
208.3	-2.54
208.683	0.12
209.067	2.3
209.45	8.76
209.834	10.98
210.217	18.64
210.601	19.85
210.984	25.32
211.367	34.36
211.751	35.65
212.134	34.58
212.517	35.71
212.901	39.92
213.284	41.35
213.667	41.27
214.05	43.28
214.433	37.85
214.816	35.49
215.199	33.99
215.582	24.01
215.965	17.42
216.348	15.29
216.731	13.68
217.114	3.76
217.497	-2.61
217.88	-6.13
218.262	-10.69
218.645	-12.48
219.028	-15.16
219.411	-17.99
219.793	-15.8
220.176	-13.02
220.559	-14.65
220.941	-13.76
221.324	-8.14
221.706	-4.74
222.089	-4.5
222.471	-0.54
222.853	1.64
223.236	4.03
223.618	2.5
224	2.35
224.383	1.48
224.765	3.12
225.147	3.23
225.529	1.88
225.912	0.99
226.294	1.47
226.676	0.79
227.058	0.15
227.44	0.13
227.822	0.36
228.204	0.83
228.586	1.18
228.968	0.65
229.349	0.67
229.731	1.16
230.113	1.16
230.495	1.01
230.877	0.8
231.258	1.18
231.64	1.04
232.022	1.15
232.403	1.18
232.785	1.48
233.166	1.9
233.548	1.99
233.929	1.87
234.311	1.9
234.692	1.95
235.073	2.33
235.455	2.36
235.836	2.34
236.217	2.4
236.599	1.72
236.98	1.23
237.361	0.85
237.742	0.61
238.123	0.43
238.504	0.26
238.885	0.02
239.266	-0.22
239.647	-0.63
240.028	-0.34
240.409	-0.33
240.79	0.08
241.171	0.19
241.552	0.3
241.933	0.4
242.313	0.48
242.694	0.69
243.075	1
243.456	0.86
243.836	1.07
244.217	1.05
244.597	1.06
244.978	1.02
245.358	1.11
245.739	1.12
246.119	1.1
246.5	1.07
246.88	0.95
247.26	0.81
247.641	0.82
248.021	0.8
248.401	0.77
248.781	0.84
249.162	0.93
249.542	0.88
249.922	0.89
250.302	0.86
250.682	0.78
251.062	0.77
251.442	0.77
251.822	0.88
252.202	0.85
252.582	0.81
252.961	0.78
253.341	0.7
253.721	0.65
254.101	0.59
254.48	0.61
254.86	0.62
255.24	0.81
255.619	0.96
255.999	0.77
256.378	0.7
256.758	0.73
257.137	0.71
257.517	0.6
257.896	0.63
258.276	0.66
258.655	0.54
259.034	0.54
259.414	0.38
259.793	0.28
260.172	0.27
260.551	0.22
260.93	0.2
261.309	0.1
261.688	0.14
262.068	0.18
262.447	0.17
262.825	0.19
263.204	0.15
263.583	0.27
263.962	0.45
264.341	0.61
264.72	0.73
265.099	0.75
265.477	0.87
265.856	0.79
266.235	0.7
266.613	0.65
266.992	0.64
267.371	0.68
267.749	0.68
268.128	0.49
268.506	0.43
268.884	0.42
269.263	0.39
269.641	0.39
270.02	0.34
270.398	0.38
270.776	0.46
271.154	0.53
271.533	0.55
271.911	0.41
272.289	0.4
272.667	0.44
273.045	0.39
273.423	0.39
273.801	0.3
274.179	0.32
274.557	0.27
274.935	0.23
275.313	0.11
275.69	0.13
276.068	0.16
276.446	0.18
276.824	0.13
277.201	0.23
277.579	0.26
277.957	0.35
278.334	0.34
278.712	0.34
279.089	0.32
279.467	0.43
279.844	0.41
280.222	0.43
280.599	0.48
280.976	0.43
281.354	0.31
281.731	0.3
282.108	0.37
282.485	0.4
282.863	0.44
283.24	0.43
283.617	0.41
283.994	0.4
284.371	0.42
284.748	0.41
285.125	0.49
285.502	0.56
285.879	0.6
286.256	0.59
286.633	0.64
287.009	0.65
287.386	0.69
287.763	0.74
288.139	0.79
288.516	0.82
288.893	0.83
289.269	0.8
289.646	0.84
290.022	0.85
290.399	0.83
290.775	0.82
291.152	0.86
291.528	0.88
291.904	0.89
292.281	0.9
292.657	0.9
293.033	0.96
293.41	1.02
293.786	1.04
294.162	1.04
294.538	1.12
294.914	1.19
295.29	1.18
295.666	1.23
296.042	1.24
296.418	1.27
296.794	1.3
297.17	1.31
297.546	1.35
297.921	1.37
298.297	1.43
298.673	1.45
299.048	1.47
299.424	1.52
299.8	1.54
300.175	1.6
300.551	1.66
300.926	1.72
301.302	1.76
301.677	1.77
302.053	1.8
302.428	1.8
302.803	1.83
303.179	1.86
303.554	1.89
303.929	1.95
304.304	1.95
304.68	1.95
305.055	2.01
305.43	2.04
305.805	2.08
306.18	2.11
306.555	2.16
306.93	2.19
307.305	2.21
307.679	2.24
308.054	2.21
308.429	2.21
308.804	2.23
309.179	2.2
309.553	2.2
309.928	2.23
310.303	2.29
310.677	2.31
311.052	2.32
311.426	2.33
311.801	2.34
312.175	2.39
312.55	2.43
312.924	2.45
313.298	2.46
313.673	2.51
314.047	2.52
314.421	2.48
314.795	2.52
315.17	2.53
315.544	2.57
315.918	2.59
316.292	2.61
316.666	2.68
317.04	2.72
317.414	2.81
317.788	2.84
318.162	2.88
318.535	2.98
318.909	3.04
319.283	3.07
319.657	3.13
320.03	3.19
320.404	3.3
320.778	3.43
321.151	3.6
321.525	3.82
321.898	4.1
322.272	4.39
322.645	4.66
323.019	4.98
323.392	5.31
323.765	5.72
324.139	6.16
324.512	6.61
324.885	7.08
325.258	7.45
325.632	7.79
326.005	8.03
326.378	8.22
326.751	8.38
327.124	8.48
327.497	8.62
327.87	8.62
328.243	8.69
328.616	8.73
328.988	8.77
329.361	8.71
329.734	8.71
330.107	8.68
330.479	8.62
330.852	8.52
331.225	8.46
331.597	8.39
331.97	8.33
332.342	8.22
332.715	8.14
333.087	8.05
333.46	7.93
333.832	7.89
334.204	7.82
334.577	7.75
334.949	7.72
335.321	7.67
335.693	7.67
336.065	7.55
336.438	7.51
336.81	7.39
337.182	7.32
337.554	7.2
337.926	7.1
338.298	7.04
338.669	6.94
339.041	6.9
339.413	6.86
339.785	6.82
340.157	6.77
340.528	6.74
340.9	6.7
341.272	6.64
341.643	6.61
342.015	6.6
342.386	6.64
342.758	6.69
343.129	6.72
343.501	6.75
343.872	6.79
344.243	6.79
344.615	6.72
344.986	6.75
345.357	6.71
345.728	6.74
346.099	6.74
346.471	6.7
346.842	6.68
347.213	6.64
347.584	6.64
347.955	6.63
348.326	6.62
348.697	6.58
349.067	6.58
349.438	6.56
349.809	6.59
350.18	6.65
350.55	6.67
350.921	6.7
351.292	6.75
351.662	6.76
352.033	6.78
352.403	6.78
352.774	6.81
353.144	6.79
353.515	6.78
353.885	6.79
354.255	6.77
354.626	6.79
354.996	6.8
355.366	6.78
355.736	6.78
356.107	6.77
356.477	6.77
356.847	6.74
357.217	6.77
357.587	6.8
357.957	6.8
358.327	6.82
358.697	6.85
359.066	6.85
359.436	6.88
359.806	6.89
360.176	6.94
360.546	6.96
360.915	6.97
361.285	6.98
361.654	6.97
362.024	6.99
362.393	7
362.763	6.98
363.132	6.99
363.502	7.01
363.871	7.03
364.24	7.01
364.61	7.05
364.979	7.07
365.348	7.09
365.717	7.13
366.087	7.15
366.456	7.18
366.825	7.21
367.194	7.24
367.563	7.26
367.932	7.28
368.301	7.33
368.669	7.35
369.038	7.35
369.407	7.38
369.776	7.38
370.145	7.42
370.513	7.42
370.882	7.46
371.25	7.45
371.619	7.5
371.988	7.53
372.356	7.53
372.724	7.57
373.093	7.63
373.461	7.66
373.83	7.7
374.198	7.72
374.566	7.76
374.934	7.76
375.303	7.81
375.671	7.8
376.039	7.84
376.407	7.89
376.775	7.9
377.143	7.91
377.511	7.92
377.879	7.93
378.247	7.97
378.615	8
378.982	8.07
379.35	8.12
379.718	8.16
380.086	8.19
380.453	8.22
380.821	8.26
381.188	8.31
381.556	8.38
381.923	8.43
382.291	8.45
382.658	8.47
383.026	8.48
383.393	8.51
383.76	8.57
384.128	8.6
384.495	8.64
384.862	8.66
385.229	8.69
385.596	8.72
385.963	8.75
386.33	8.78
386.697	8.83
387.064	8.87
387.431	8.89
387.798	8.91
388.165	8.93
388.532	8.94
388.899	8.94
389.265	8.96
389.632	8.97
389.999	8.99
390.365	9.01
390.732	9.01
391.098	9.01
391.465	9.02
391.831	9.02
392.198	9.04
392.564	9.06
392.93	9.09
393.297	9.11
393.663	9.11
394.029	9.13
394.395	9.15
394.762	9.18
395.128	9.21
395.494	9.23
395.86	9.26
396.226	9.27
396.592	9.28
396.958	9.29
397.323	9.3
397.689	9.34
398.055	9.35
398.421	9.36
398.787	9.35
399.152	9.35
399.518	9.36
399.883	9.37
400.249	9.37
400.615	9.39
400.98	9.41
401.345	9.41
401.711	9.4
402.076	9.4
402.442	9.42
402.807	9.42
403.172	9.44
403.537	9.46
403.902	9.46
404.268	9.47
404.633	9.48
404.998	9.47
405.363	9.48
405.728	9.49
406.093	9.51
406.457	9.51
406.822	9.55
407.187	9.58
407.552	9.57
407.917	9.58
408.281	9.6
408.646	9.62
409.011	9.65
409.375	9.67
409.74	9.68
410.104	9.69
410.469	9.69
410.833	9.68
411.197	9.65
411.562	9.67
411.926	9.66
412.29	9.66
412.655	9.65
413.019	9.64
413.383	9.64
413.747	9.65
414.111	9.67
414.475	9.69
414.839	9.71
415.203	9.74
415.567	9.76
415.931	9.79
416.295	9.82
416.658	9.82
417.022	9.84
417.386	9.86
417.749	9.85
418.113	9.83
418.477	9.83
418.84	9.84
419.204	9.86
419.567	9.85
419.931	9.86
420.294	9.86
420.657	9.89
421.021	9.91
421.384	9.94
421.747	9.97
422.11	10
422.473	10.01
422.836	10.03
423.199	10.02
423.562	10.05
423.925	10.05
424.288	10.06
424.651	10.07
425.014	10.07
425.377	10.06
425.74	10.05
426.102	10.07
426.465	10.09
426.828	10.1
427.19	10.12
427.553	10.14
427.916	10.13
428.278	10.15
428.641	10.16
429.003	10.19
429.365	10.2
429.728	10.23
430.09	10.22
430.452	10.21
430.814	10.19
431.177	10.19
431.539	10.19
431.901	10.21
432.263	10.24
432.625	10.24
432.987	10.26
433.349	10.29
433.711	10.32
434.072	10.39
434.434	10.43
434.796	10.51
435.158	10.57
435.519	10.62
435.881	10.68
436.243	10.7
436.604	10.75
436.966	10.79
437.327	10.81
437.689	10.83
438.05	10.83
438.411	10.86
438.773	10.88
439.134	10.89
439.495	10.9
439.856	10.91
440.218	10.94
440.579	10.96
440.94	10.98
441.301	11.04
441.662	11.07
442.023	11.12
442.384	11.13
442.745	11.17
443.105	11.19
443.466	11.23
443.827	11.27
444.188	11.3
444.548	11.33
444.909	11.37
445.269	11.38
445.63	11.4
445.99	11.41
446.351	11.46
446.711	11.47
447.072	11.49
447.432	11.52
447.792	11.54
448.153	11.57
448.513	11.59
448.873	11.61
449.233	11.62
449.593	11.62
449.953	11.65
450.313	11.65
450.673	11.68
451.033	11.72
451.393	11.73
451.753	11.72
452.113	12.35
452.472	12.35
452.832	12.33
453.192	12.33
453.551	12.32
453.911	12.31
454.271	12.3
454.63	12.29
454.989	12.3
455.349	12.33
455.708	12.35
456.068	12.05
456.427	12.07
456.786	12.11
457.145	12.15
457.505	12.21
457.864	12.25
458.223	12.33
458.582	12.4
458.941	12.46
459.3	12.5
459.659	12.55
460.018	12.59
460.376	12.64
460.735	12.67
461.094	12.7
461.453	12.72
461.811	12.75
462.17	12.76
462.529	12.79
462.887	12.8
463.246	12.83
463.604	12.86
463.963	12.89
464.321	12.82
464.679	12.85
465.038	12.89
465.396	12.92
465.754	12.96
466.112	13
466.47	13.05
466.828	13.11
467.186	13.15
467.544	13.2
467.902	13.24
468.26	13.42
468.618	13.48
468.976	13.52
469.334	13.57
469.692	13.59
470.049	13.63
470.407	13.64
470.765	13.66
471.122	13.71
471.48	13.73
471.837	13.77
472.195	13.82
472.552	13.88
472.909	13.92
473.267	13.96
473.624	14.02
473.981	14.06
474.338	14.08
474.696	14.13
475.053	14.16
475.41	14.22
475.767	14.28
476.124	14.3
476.481	14.35
476.838	14.4
477.194	14.45
477.551	14.49
477.908	14.54
478.265	14.59
478.621	14.62
478.978	14.66
479.335	14.69
479.691	14.73
480.048	14.76
480.404	14.77
480.761	14.8
481.117	14.84
481.473	14.85
481.83	14.88
482.186	14.91
482.542	14.95
482.898	14.99
483.255	15.02
483.611	15.06
483.967	15.11
484.323	15.18
484.679	15.22
485.035	15.27
485.39	15.31
485.746	15.34
486.102	15.37
486.458	15.39
486.814	15.43
487.169	15.46
487.525	15.47
487.88	15.5
488.236	15.51
488.591	15.52
488.947	15.53
489.302	15.55
489.658	15.58
490.013	15.6
490.368	15.62
490.723	15.63
491.079	15.64
491.434	15.65
491.789	15.66
492.144	15.68
492.499	15.7
492.854	15.72
493.209	15.74
493.564	15.77
493.919	15.8
494.273	15.81
494.628	15.82
494.983	15.85
495.338	15.86
495.692	15.87
496.047	15.87
496.401	15.87
496.756	15.88
497.11	15.87
497.465	15.85
497.819	15.83
498.173	15.83
498.528	15.83
498.882	15.84
499.236	15.86
499.59	15.89
499.944	15.92
500.298	15.95
500.652	15.96
501.006	15.98
501.36	16
501.714	16.01
502.068	16.03
502.422	16.05
502.776	16.05
503.129	16.06
503.483	16.07
503.837	16.1
504.19	16.12
504.544	16.12
504.897	16.13
505.251	16.12
505.604	16.11
505.958	16.1
506.311	16.07
506.664	16.04
507.017	15.99
507.371	15.95
507.724	15.88
508.077	15.81
508.43	15.79
508.783	15.77
509.136	15.75
509.489	15.75
509.842	15.73
510.195	15.72
510.547	15.72
510.9	15.71
511.253	15.7
511.606	15.68
511.958	15.64
512.311	15.61
512.663	15.56
513.016	15.51
513.368	15.47
513.721	15.44
514.073	15.4
514.425	15.37
514.778	15.34
515.13	15.33
515.482	15.31
515.834	15.3
516.186	15.29
516.538	15.29
516.89	15.31
517.242	15.31
517.594	15.31
517.946	15.3
518.298	15.3
518.65	15.31
519.001	15.29
519.353	15.27
519.705	15.23
520.056	15.19
520.408	15.14
520.759	15.08
521.111	15.05
521.462	15.02
521.814	15.01
522.165	14.95
522.516	14.92
522.868	14.89
523.219	14.84
523.57	14.82
523.921	14.82
524.272	14.8
524.623	14.78
524.974	14.73
525.325	14.7
525.676	14.66
526.027	14.64
526.378	14.61
526.728	14.57
527.079	14.55
527.43	14.54
527.78	14.49
528.131	14.45
528.481	14.41
528.832	14.39
529.182	14.35
529.533	14.32
529.883	14.28
530.233	14.23
530.584	14.2
530.934	14.17
531.284	14.12
531.634	14.11
531.984	14.08
532.334	14.07
532.684	14.01
533.034	14.01
533.384	13.99
533.734	13.98
534.084	13.94
534.434	13.91
534.783	13.89
535.133	13.85
535.483	13.78
535.832	13.74
536.182	13.69
536.531	13.66
536.881	13.58
537.23	13.52
537.58	13.45
537.929	13.41
538.278	14.92
538.628	14.88
538.977	14.84
539.326	14.8
539.675	14.76
540.024	14.72
540.373	14.67
540.722	14.63
541.071	14.6
541.42	14.59
541.769	14.53
542.117	12.93
542.466	12.86
542.815	12.82
543.163	12.74
543.512	12.71
543.861	12.66
544.209	12.62
544.558	12.59
544.906	12.54
545.254	12.49
545.603	12.48
545.951	12.44
546.299	12.45
546.647	12.43
546.996	12.42
547.344	12.36
547.692	12.33
548.04	12.3
548.388	12.26
548.736	12.24
549.083	12.21
549.431	12.14
549.779	12.08
550.127	12
550.475	11.95
550.822	11.89
551.17	11.85
551.517	11.79
551.865	11.74
552.212	11.73
552.56	11.7
552.907	11.62
553.254	11.61
553.602	11.57
553.949	11.51
554.296	11.43
554.643	11.4
554.99	11.34
555.337	11.29
555.684	11.2
556.031	11.11
556.378	11.03
556.725	11.02
557.072	10.96
557.419	10.9
557.765	10.86
558.112	10.82
558.459	10.75
558.805	10.72
559.152	10.68
559.498	10.65
559.845	10.62
560.191	10.56
560.538	10.48
560.884	10.43
561.23	10.38
561.576	10.31
561.923	10.23
562.269	10.18
562.615	10.13
562.961	10.1
563.307	10.07
563.653	10.04
563.999	9.99
564.344	9.96
564.69	9.95
565.036	9.93
565.382	9.92
565.727	9.91
566.073	9.87
566.419	9.85
566.764	9.77
567.11	9.73
567.455	9.66
567.8	9.59
568.146	9.51
568.491	9.43
568.836	9.38
569.181	9.31
569.527	9.25
569.872	9.22
570.217	9.15
570.562	9.12
570.907	9.08
571.252	9.03
571.597	9.01
571.941	8.98
572.286	8.94
572.631	8.94
572.976	8.88
573.32	8.85
573.665	8.81
574.009	8.79
574.354	8.79
574.698	8.78
575.043	8.75
575.387	8.73
575.731	8.7
576.076	8.67
576.42	8.65
576.764	8.64
577.108	8.61
577.452	8.61
577.796	8.59
578.14	8.55
578.484	8.52
578.828	8.5
579.172	8.5
579.516	8.48
579.86	8.43
580.203	8.42
580.547	8.39
580.891	8.38
581.234	8.35
581.578	8.31
581.921	8.3
582.264	8.3
582.608	8.26
582.951	8.25
583.294	8.24
583.638	8.23
583.981	8.22
584.324	8.22
584.667	8.18
585.01	8.17
585.353	8.15
585.696	8.15
586.039	8.14
586.382	8.14
586.725	8.12
587.067	8.12
587.41	8.12
587.753	8.12
588.095	8.12
588.438	8.12
588.781	8.12
589.123	8.1
589.465	8.1
589.808	8.09
590.15	8.04
590.492	8.02
590.835	7.99
591.177	7.98
591.519	7.95
591.861	7.95
592.203	7.93
592.545	7.91
592.887	7.9
593.229	7.89
593.571	7.87
593.913	7.84
594.254	7.84
594.596	7.82
594.938	7.8
595.279	7.81
595.621	7.78
595.963	7.78
596.304	7.78
596.645	7.76
596.987	7.74
597.328	7.74
597.669	7.75
598.011	7.74
598.352	7.74
598.693	7.73
599.034	7.69
599.375	7.68
599.716	7.66
600.057	7.63
600.398	7.63
600.739	7.61
601.08	7.6
601.42	7.58
601.761	7.56
602.102	7.55
602.442	7.52
602.783	7.49
603.123	7.47
603.464	7.43
603.804	7.41
604.145	7.39
604.485	7.37
604.825	7.37
605.166	7.33
605.506	7.33
605.846	7.33
606.186	7.33
606.526	7.34
606.866	7.34
607.206	7.35
607.546	7.33
607.886	7.3
608.225	7.27
608.565	7.25
608.905	7.23
609.245	7.21
609.584	7.19
609.924	7.17
610.263	7.14
610.603	7.13
610.942	7.13
611.281	7.14
611.621	7.11
611.96	7.09
612.299	7.09
612.638	7.07
612.978	7.07
613.317	7.01
613.656	6.99
613.995	6.95
614.334	6.92
614.672	6.87
615.011	6.88
615.35	6.83
615.689	6.83
616.027	6.83
616.366	6.83
616.705	6.82
617.043	6.81
617.382	6.81
617.72	6.8
618.059	6.77
618.397	6.75
618.735	6.74
619.073	6.73
619.412	6.72
619.75	6.68
620.088	6.67
620.426	6.67
620.764	6.67
621.102	6.67
621.44	6.66
621.778	6.66
622.115	6.67
622.453	6.67
622.791	6.67
623.129	6.66
623.466	6.65
623.804	6.64
624.141	6.63
624.479	6.62
624.816	6.59
625.153	6.58
625.491	6.56
625.828	6.55
626.165	6.51
626.502	6.48
626.84	6.48
627.177	6.47
627.514	6.44
627.851	6.41
628.188	6.33
628.524	6.29
628.861	6.27
629.198	6.22
629.535	6.23
629.871	6.22
630.208	6.22
630.545	6.25
630.881	6.24
631.218	6.22
631.554	6.22
631.89	6.24
632.227	6.22
632.563	6.2
632.899	6.18
633.235	6.16
633.572	6.11
633.908	6.09
634.244	6.06
634.58	5.99
634.916	6.03
635.251	6.04
635.587	6.03
635.923	6.02
636.259	6.01
636.595	6.03
636.93	6.02
637.266	6.03
637.601	6.02
637.937	5.98
638.272	6.01
638.608	5.94
638.943	5.9
639.278	5.88
639.613	5.87
639.949	5.83
640.284	5.81
640.619	5.81
640.954	5.81
641.289	5.75
641.624	5.76
641.959	5.68
642.294	5.63
642.628	5.64
642.963	5.61
643.298	5.56
643.632	5.65
643.967	5.66
644.302	5.59
644.636	5.57
644.971	5.59
645.305	5.53
645.639	5.58
645.974	5.6
646.308	5.54
646.642	5.56
646.976	5.59
647.31	5.45
647.644	5.38
647.978	5.38
648.312	5.33
648.646	5.33
648.98	5.37
649.314	5.38
649.647	5.35
649.981	5.33
650.315	5.29
650.648	5.23
650.982	5.25
651.315	5.26
651.649	5.24
651.982	5.25
652.316	5.22
652.649	5.18
652.982	5.14
653.315	5.14
653.648	5.15
653.982	5.18
654.315	5.14
654.648	5.07
654.981	5.07
655.313	5.08
655.646	5.07
655.979	5.12
656.312	5.12
656.644	5.12
656.977	5.12
657.31	5.06
657.642	5.02
657.975	5.03
658.307	5.06
658.64	5.07
658.972	5.1
659.304	5.07
659.636	5
659.969	4.94
660.301	4.94
660.633	4.93
660.965	4.97
661.297	4.97
661.629	5.01
661.961	5.02
662.292	4.99
662.624	4.93
662.956	4.98
663.288	5.01
663.619	5.03
663.951	4.98
664.282	4.93
664.614	4.87
664.945	4.84
665.276	4.84
665.608	4.8
665.939	4.78
666.27	4.66
666.601	4.58
666.933	4.56
667.264	4.57
667.595	4.61
667.926	4.7
668.256	4.7
668.587	4.65
668.918	4.68
669.249	4.7
669.58	4.68
669.91	4.78
670.241	4.88
670.571	4.93
670.902	4.99
671.232	4.92
671.563	4.85
671.893	4.86
672.223	4.89
672.554	4.8
672.884	4.82
673.214	4.84
673.544	4.86
673.874	4.76
674.204	4.71
674.534	4.6
674.864	4.67
675.194	4.64
675.524	4.68
675.853	4.66
676.183	4.61
676.513	4.54
676.842	4.49
677.172	4.48
677.501	4.54
677.831	4.52
678.16	4.6
678.489	4.59
678.819	4.59
679.148	4.53
679.477	4.5
679.806	4.51
680.135	4.49
680.464	4.49
680.793	4.45
681.122	4.34
681.451	4.23
681.78	4.14
682.108	4.06
682.437	4.05
682.766	4.04
683.094	4.1
683.423	4.11
683.751	4.14
684.08	4.12
684.408	4.08
684.737	4.17
685.065	4.15
685.393	4.21
685.721	4.25
686.049	4.29
686.377	4.33
686.705	4.33
687.033	4.43
687.361	4.47
687.689	4.59
688.017	4.71
688.345	4.71
688.673	4.84
689.0	4.78
689.328	4.76
689.655	4.74
689.983	4.77
690.31	4.75
690.638	4.64
690.965	4.5
691.292	4.33
691.62	4.3
691.947	4.22
692.274	4.18
692.601	4.12
692.928	4.12
693.255	4.07
693.582	4
693.909	3.9
694.236	3.95
694.562	4.01
694.889	4.07
695.216	4.05
695.542	4.09
695.869	4.05
696.196	4.16
696.522	4.16
696.848	4.14
697.175	4.11
697.501	4.27
697.827	4.28
698.154	4.35
698.48	4.4
698.806	4.42
699.132	4.4
699.458	4.44
699.784	4.44
700.11	4.49
700.435	4.57
700.761	4.58
701.087	4.44
701.413	4.42
701.738	4.34
702.064	4.26
702.389	4.15
702.715	4.11
703.04	4.13
703.366	4.02
703.691	3.98
704.016	3.86
704.341	3.9
704.666	3.92
704.992	3.81
705.317	3.88
705.642	3.89
705.967	3.9
706.291	3.93
706.616	3.92
706.941	3.97
707.266	4.02
707.59	4.13
707.915	4.1
708.24	4.12
708.564	4.24
708.889	4.23
709.213	4.33
709.537	4.36
709.862	4.28
710.186	4.16
710.51	4.22
710.834	4.13
711.158	4.09
711.482	4.12
711.806	4.11
712.13	4.13
712.454	4.07
712.778	4.01
713.102	3.97
713.426	4.05
713.749	4.05
714.073	4.01
714.396	3.94
714.72	3.98
715.043	3.87
715.367	3.9
715.69	3.82
716.013	3.8
716.337	3.8
716.66	3.84
716.983	3.98
717.306	4.12
717.629	3.98
717.952	4.09
718.275	4.02
718.598	4.12
718.921	4.03
719.243	4.06
719.566	4.15
719.889	4.22
720.211	4.1
720.534	3.98
720.856	3.83
721.179	3.92
721.501	3.86
721.823	3.86
722.146	3.89
722.468	3.96
722.79	3.88
723.112	3.72
723.434	3.65
723.756	3.67
724.078	3.61
724.4	3.48
724.722	3.55
725.044	3.31
725.366	3.19
725.687	3.17
726.009	3.09
726.33	3.1
726.652	3.26
726.973	3.1
727.295	3.27
727.616	3.16
727.938	3.43
728.259	3.48
728.58	3.75
728.901	3.86
729.222	3.82
729.543	3.91
729.864	4.01
730.185	3.88
730.506	3.89
730.827	3.8
731.148	3.85
731.468	3.73
731.789	3.61
732.11	3.47
732.43	3.37
732.751	3.42
733.071	3.3
733.392	3.29
733.712	3.35
734.032	3.6
734.352	3.64
734.673	3.7
734.993	3.63
735.313	3.65
735.633	4.17
735.953	4.41
736.273	4.44
736.593	4.68
736.912	4.59
737.232	4.53
737.552	4.46
737.871	4.34
738.191	4.39
738.51	4.63
738.83	4.79
739.149	4.47
739.469	4.41
739.788	4.32
740.107	4.24
740.426	4.42
740.746	4.42
741.065	4.29
741.384	4.3
741.703	4.23
742.022	4.15
742.341	4.15
742.659	4.03
742.978	3.89
743.297	4.03
743.615	3.95
743.934	3.79
744.253	3.82
744.571	3.95
744.89	4.13
745.208	4.15
745.526	4.24
745.845	3.94
746.163	3.74
746.481	4.01
746.799	3.79
747.117	3.95
747.435	3.99
747.753	4.15
748.071	4.02
748.389	3.92
748.706	3.77
749.024	3.63
749.342	3.82
749.659	4.11
749.977	3.67
750.295	4.02
750.612	3.85
750.929	3.91
751.247	4.03
751.564	4.07
751.881	4.11
752.198	4.4
752.516	4.57
752.833	4.46
753.15	4.06
753.467	4.15
753.783	3.89
754.1	4.04
754.417	3.99
754.734	3.86
755.05	4.16
755.367	4
755.684	3.93
756.0	3.9
756.317	3.98
756.633	4.13
756.949	4.36
757.266	4.37
757.582	4.12
757.898	4.07
758.214	3.98
758.53	3.62
758.846	3.81
759.162	3.57
759.478	3.33
759.794	3.44
760.11	3.58
760.426	3.39
760.741	3.49
761.057	3.41
761.372	3.43
761.688	3.39
762.003	3.65
762.319	3.66
762.634	3.81
762.949	3.88
763.265	3.93
763.58	3.79
763.895	3.76
764.21	3.58
764.525	3.61
764.84	3.7
765.155	3.77
765.47	3.69
765.785	3.54
766.099	3.62
766.414	3.52
766.729	3.26
767.043	3.33
767.358	3.48
767.672	3.39
767.987	3.49
768.301	3.36
768.615	3.46
768.929	3.29
769.244	3.44
769.558	3.7
769.872	3.66
770.186	3.82
770.5	3.81
770.814	3.46
771.127	4.09
771.441	4.13
771.755	4.42
772.069	3.96
772.382	3.96
772.696	3.95
773.009	3.49
773.323	3.76
773.636	3.85
773.95	3.8
774.263	4.44
774.576	3.52
774.889	3.63
775.202	3.35
775.515	3.63
775.828	3.69
776.141	3.72
776.454	3.61
776.767	3.47
777.08	3.15
777.393	2.88
777.705	2.43
778.018	2.88
778.33	2.71
778.643	2.93
778.955	2.73
779.268	2.76
779.58	2.92
779.892	3.12
780.205	3.21
780.517	3.38
780.829	4.05
781.141	4.44
781.453	4.42
781.765	4.48
782.077	4.14
782.388	4.45
782.7	4.5
783.012	4.72
783.324	4.37
783.635	4.59
783.947	4.91
784.258	4.24
784.57	3.67
784.881	3.83
785.192	3.15
785.504	3.42
785.815	3.24
786.126	3.52
786.437	3.3
786.748	3.47
787.059	3.45
787.37	3.19
787.681	3.5
787.992	3.71
788.302	3.85
788.613	4.82
788.924	4.73
789.234	5.39
789.545	5.45
789.855	5.29
790.166	5.33
790.476	4.98
790.786	5.15
791.096	4.95
791.407	5.4
791.717	4.87
792.027	4.55
792.337	4.22
792.647	3.91
792.957	3.78
793.266	3.68
793.576	3.62
793.886	3.79
794.196	3.73
794.505	8.05
794.815	7.7
795.124	8.3
795.434	8.54
795.743	7.91
796.052	7.78
796.362	7.41
796.671	7.34
796.98	7.74
797.289	7.95
797.598	7.74
797.907	3.87
798.216	4.24
798.525	4
798.834	4.2
799.142	5.07
799.451	4.98
799.76	5.24
800.068	5.07
800.377	4.99
800.685	5.29
800.994	5.44
801.302	5.49
801.61	5.11
801.918	4.86
802.227	4.34
802.535	4.38
802.843	4.02
803.151	3.54
803.459	3.71
803.767	3.29
804.074	2.34
804.382	2.24
804.69	3.57
804.998	3.63
805.305	4.48
805.613	4.41
805.92	4.65
806.228	5.01
806.535	4.88
806.842	4.67
807.15	5.22
807.457	5.47
807.764	5.47
808.071	4.38
808.378	4.49
808.685	3.85
808.992	3.71
809.299	3.59
809.605	3.95
809.912	5.18
810.219	5.64
810.525	5.23
810.832	5.19
811.138	4.96
811.445	4.54
811.751	4.05
812.058	3.35
812.364	3.67
812.67	3.67
812.976	2.96
813.282	1.3
813.588	1.32
813.894	1.64
814.2	1.46
814.506	1.75
814.812	1.56
815.118	2.14
815.423	2.39
815.729	2.38
816.035	1.93
816.34	2.13
816.646	3.58
816.951	3.27
817.256	3.09
817.562	4.03
817.867	3.91
818.172	4.29
818.477	4.5
818.782	5.1
819.087	6.18
819.392	6.42
819.697	5.94
820.002	4.47
820.306	4.04
820.611	3.33
820.916	2.89
821.22	3.07
821.525	2.51
821.829	2.82
822.134	3.02
822.438	2.75
822.742	2.92
823.047	3.18
823.351	3.48
823.655	3.72
823.959	3.86
824.263	3.71
824.567	3.86
824.871	4.05
825.174	4.09
825.478	5.56
825.782	5.76
826.086	5.96
826.389	6.16
826.693	6.44
826.996	6.47
827.3	6.67
827.603	6.87
827.906	6.87
828.209	7.07
828.513	7.08
828.816	5.22
829.119	5.04
829.422	4.75
829.725	4.54
830.028	4.22
830.33	4.03
830.633	3.99
830.936	4.21
831.238	3.66
831.541	3.66
831.844	3.55
832.146	3.35
832.448	3.37
832.751	3.17
833.053	3.1
833.355	3.65
833.657	3.53
833.96	3.6
834.262	3.53
834.564	3.94
834.865	3.56
835.167	4.44
835.469	4.49
835.771	4.21
836.073	4.37
836.374	4.2
836.676	3.21
836.977	3.34
837.279	3.11
837.58	2.81
837.882	2.86
838.183	3.21
838.484	1.82
838.785	1.84
839.086	2.28
839.387	2.54
839.688	3.07
839.989	3.99
840.29	4.07
840.591	5
840.892	4.95
841.192	5.64
841.493	5.6
841.794	6.72
842.094	7.58
842.394	7.01
842.695	7.01
842.995	7.01
843.295	7.01
843.596	7.01
843.896	7.01
844.196	7.01
844.496	7.01
844.796	7.01
845.096	7.01
845.396	7.01
845.695	7.01
845.995	4.5
846.295	6.3
846.594	6.77
846.894	7.99
847.194	8.03
847.493	7.75
847.792	6.08
848.092	6.34
848.391	4.8
848.69	4.94
848.989	5.39
849.288	4.78
849.587	4.5
849.886	3.78
850.185	3.91
850.484	5.91
850.783	6.12
851.081	8.06
851.38	9.33
851.679	11.73
851.977	12.11
852.276	12.53
852.574	14.47
852.872	13.4
853.171	14.38
853.469	11.68
853.767	9.49
854.065	10.75
854.363	6.54
854.661	7.36
854.959	6.62
855.257	4.8
855.555	3.41
855.853	2.23
856.15	4.62
856.448	4.45
856.746	6.2
857.043	5.63
857.341	7.06
857.638	14.69
857.935	12.25
858.233	11.69
858.53	14.97
858.827	16.48
859.124	15.61
859.421	14.12
859.718	14.45
860.015	15.22
860.312	17.07
860.609	14.31
860.905	11.24
861.202	12.4
861.499	12.58
861.795	12.59
862.092	10.95
862.388	11
862.684	10.4
862.981	9.8
863.277	6.76
863.573	7.1
863.869	6.22
864.165	3.12
864.461	3.35
864.757	1.58
865.053	0.76
865.349	1.03
865.645	0.18
865.94	0.18
866.236	0.18
866.532	0.18
866.827	0.18
867.123	0.18
867.418	2.18
867.713	0.55
868.009	1.21
868.304	1.29
868.599	1.23
868.894	3.46
869.189	5.44
869.484	10.24
869.779	8.64
870.074	9.61
870.369	9.2
870.663	8.99
870.958	9.38
871.252	10.52
871.547	10.3
871.842	9.38
872.136	5.38
872.43	3.46
872.725	1.39
873.019	3.29
873.313	5.42
873.607	4.21
873.901	2.36
874.195	3.4
874.489	2.33
874.783	1.31
875.077	2.19
875.37	8.6
875.664	10.58
875.958	12.52
876.251	12.05
876.545	9.15
876.838	8.63
877.132	11.17
877.425	11.12
877.718	11.61
878.011	11.55
878.305	12.13
878.598	6.23
878.891	4.27
879.184	3.55
879.476	4.39
879.769	2.92
880.062	2.93
880.355	0.83
880.647	1.18
880.94	1.18
881.232	1.18
881.525	1.18
881.817	1.18
882.11	1.18
882.402	1.18
882.694	1.18
882.986	0.32
883.278	1.59
883.57	2.03
883.862	3.25
884.154	4.7
884.446	5.29
884.738	6.04
885.03	6.65
885.321	6.38
885.613	6.37
885.904	6.99
886.196	7.03
886.487	7.15
886.779	6.83
887.07	5.94
887.361	5.87
887.652	6.38
887.943	6.1
888.234	5.79
888.525	5.4
888.816	5.08
889.107	5.17
889.398	4.55
889.689	3.81
889.979	4.71
890.27	4.72
890.56	4.33
890.851	2.74
891.141	2.95
891.432	2.5
891.722	3.24
