Data from groin2_Reflection__0__11-31-44-359.txt Node

Date: Thu Aug 04 11:31:44 AEST 2022
User: kathy
Spectrometer: JAZA2503
Trigger mode: 0
Integration Time (sec): 2.883200E-1
Scans to average: 10
Electric dark correction enabled: true
Nonlinearity correction enabled: true
Boxcar width: 5
XAxis mode: Wavelengths
Number of Pixels in Spectrum: 2048
>>>>>Begin Spectral Data<<<<<
189.467	-136.55
189.852	-228.79
190.237	-6736.47
190.622	-259.61
191.007	-55.94
191.392	-106.01
191.777	41.35
192.162	-229.32
192.546	-215.29
192.931	-312.18
193.316	-197.57
193.701	-238.29
194.086	8.15
194.47	77.31
194.855	-27.19
195.24	-1488.13
195.624	79.03
196.009	174.91
196.393	144.41
196.778	-36.4
197.163	165.7
197.547	106.38
197.931	95.59
198.316	94.87
198.7	83.56
199.085	73.39
199.469	64.82
199.853	57.84
200.237	64.39
200.622	58.65
201.006	50.65
201.39	46.3
201.774	45.14
202.158	39.26
202.542	38.48
202.926	36.68
203.31	34.61
203.694	33.27
204.078	27.73
204.462	24.41
204.846	28.28
205.23	30.7
205.614	27.62
205.998	23.37
206.381	26.14
206.765	22.61
207.149	18.54
207.532	17.09
207.916	15.47
208.3	18.51
208.683	15.85
209.067	14.1
209.45	20.04
209.834	22.56
210.217	26
210.601	28.21
210.984	29.16
211.367	30.54
211.751	33.57
212.134	34.43
212.517	33.11
212.901	35.75
213.284	36.13
213.667	33.68
214.05	32.89
214.433	32.12
214.816	32.04
215.199	34.07
215.582	34.55
215.965	35.01
216.348	31.69
216.731	33.03
217.114	27.16
217.497	26.43
217.88	22.89
218.262	21.01
218.645	18.59
219.028	15.92
219.411	10.42
219.793	9.02
220.176	9.95
220.559	11.34
220.941	10.02
221.324	13.08
221.706	13.78
222.089	14.65
222.471	16.2
222.853	13.92
223.236	14.45
223.618	16.19
224	18.9
224.383	14.57
224.765	15.2
225.147	13.56
225.529	12.34
225.912	10.17
226.294	9.06
226.676	7.52
227.058	7.31
227.44	6.66
227.822	5.92
228.204	4.33
228.586	4.34
228.968	3.89
229.349	3.9
229.731	3.84
230.113	3.63
230.495	3.47
230.877	3.64
231.258	3.62
231.64	3.78
232.022	3.4
232.403	3.65
232.785	4.05
233.166	4.05
233.548	4.01
233.929	3.99
234.311	4.3
234.692	4.26
235.073	3.97
235.455	4.26
235.836	3.62
236.217	3.97
236.599	3.64
236.98	3.31
237.361	2.79
237.742	2.77
238.123	2.78
238.504	2.81
238.885	2.91
239.266	2.93
239.647	2.64
240.028	2.88
240.409	2.64
240.79	2.93
241.171	2.82
241.552	2.85
241.933	2.85
242.313	2.8
242.694	2.71
243.075	2.94
243.456	2.97
243.836	3.11
244.217	3.01
244.597	2.99
244.978	2.84
245.358	2.94
245.739	2.94
246.119	2.68
246.5	2.64
246.88	2.57
247.26	2.32
247.641	2.24
248.021	2.23
248.401	2.17
248.781	2.19
249.162	2.23
249.542	2.2
249.922	2.23
250.302	2.29
250.682	2.28
251.062	2.31
251.442	2.37
251.822	2.41
252.202	2.25
252.582	2.34
252.961	2.38
253.341	2.37
253.721	2.38
254.101	2.34
254.48	2.56
254.86	2.49
255.24	2.48
255.619	2.55
255.999	2.38
256.378	2.26
256.758	2.35
257.137	2.27
257.517	2.21
257.896	2.16
258.276	2.05
258.655	1.85
259.034	1.79
259.414	1.66
259.793	1.53
260.172	1.52
260.551	1.55
260.93	1.47
261.309	1.45
261.688	1.41
262.068	1.41
262.447	1.47
262.825	1.44
263.204	1.44
263.583	1.5
263.962	1.59
264.341	1.69
264.72	1.68
265.099	1.66
265.477	1.66
265.856	1.61
266.235	1.53
266.613	1.42
266.992	1.52
267.371	1.49
267.749	1.57
268.128	1.53
268.506	1.48
268.884	1.49
269.263	1.5
269.641	1.48
270.02	1.52
270.398	1.51
270.776	1.54
271.154	1.51
271.533	1.5
271.911	1.43
272.289	1.44
272.667	1.47
273.045	1.5
273.423	1.51
273.801	1.49
274.179	1.43
274.557	1.42
274.935	1.42
275.313	1.36
275.69	1.4
276.068	1.43
276.446	1.42
276.824	1.41
277.201	1.38
277.579	1.36
277.957	1.39
278.334	1.41
278.712	1.4
279.089	1.41
279.467	1.51
279.844	1.51
280.222	1.47
280.599	1.47
280.976	1.46
281.354	1.42
281.731	1.48
282.108	1.46
282.485	1.48
282.863	1.46
283.24	1.41
283.617	1.37
283.994	1.32
284.371	1.35
284.748	1.34
285.125	1.35
285.502	1.37
285.879	1.34
286.256	1.39
286.633	1.45
287.009	1.5
287.386	1.55
287.763	1.57
288.139	1.66
288.516	1.71
288.893	1.75
289.269	1.8
289.646	1.84
290.022	1.88
290.399	1.88
290.775	1.87
291.152	1.91
291.528	1.95
291.904	1.98
292.281	2
292.657	2.01
293.033	2.06
293.41	2.1
293.786	2.16
294.162	2.22
294.538	2.31
294.914	2.4
295.29	2.45
295.666	2.54
296.042	2.6
296.418	2.68
296.794	2.76
297.17	2.82
297.546	2.9
297.921	2.95
298.297	3.01
298.673	3.07
299.048	3.12
299.424	3.17
299.8	3.22
300.175	3.31
300.551	3.37
300.926	3.43
301.302	3.5
301.677	3.55
302.053	3.62
302.428	3.63
302.803	3.67
303.179	3.74
303.554	3.8
303.929	3.89
304.304	3.92
304.68	3.97
305.055	4.01
305.43	4.06
305.805	4.09
306.18	4.12
306.555	4.22
306.93	4.28
307.305	4.3
307.679	4.33
308.054	4.32
308.429	4.35
308.804	4.41
309.179	4.43
309.553	4.45
309.928	4.49
310.303	4.54
310.677	4.56
311.052	4.58
311.426	4.59
311.801	4.62
312.175	4.66
312.55	4.69
312.924	4.7
313.298	4.75
313.673	4.8
314.047	4.84
314.421	4.86
314.795	4.9
315.17	4.94
315.544	5
315.918	5.08
316.292	5.14
316.666	5.21
317.04	5.28
317.414	5.39
317.788	5.49
318.162	5.59
318.535	5.69
318.909	5.79
319.283	5.87
319.657	6.01
320.03	6.14
320.404	6.32
320.778	6.66
321.151	7.06
321.525	7.59
321.898	8.24
322.272	8.9
322.645	9.55
323.019	10.27
323.392	11.04
323.765	11.89
324.139	12.79
324.512	13.75
324.885	14.68
325.258	15.59
325.632	16.4
326.005	17.15
326.378	17.82
326.751	18.38
327.124	18.8
327.497	19.13
327.87	19.37
328.243	19.59
328.616	19.78
328.988	19.91
329.361	20.04
329.734	20.04
330.107	20.09
330.479	20.03
330.852	19.96
331.225	19.92
331.597	19.87
331.97	19.75
332.342	19.52
332.715	19.44
333.087	19.33
333.46	19.16
333.832	19.1
334.204	19.1
334.577	19.1
334.949	19.01
335.321	18.95
335.693	18.88
336.065	18.69
336.438	18.58
336.81	18.47
337.182	18.4
337.554	18.34
337.926	18.24
338.298	18.23
338.669	18.12
339.041	18.1
339.413	18.04
339.785	18.01
340.157	17.97
340.528	17.9
340.9	17.86
341.272	17.81
341.643	17.79
342.015	17.82
342.386	17.91
342.758	18.04
343.129	18.23
343.501	18.33
343.872	18.45
344.243	18.52
344.615	18.53
344.986	18.6
345.357	18.65
345.728	18.74
346.099	18.81
346.471	18.88
346.842	18.87
347.213	18.92
347.584	18.98
347.955	19.04
348.326	19.04
348.697	19.1
349.067	19.15
349.438	19.23
349.809	19.32
350.18	19.45
350.55	19.54
350.921	19.6
351.292	19.67
351.662	19.74
352.033	19.81
352.403	19.87
352.774	19.93
353.144	20
353.515	20.03
353.885	20.11
354.255	20.13
354.626	20.16
354.996	20.21
355.366	20.27
355.736	20.31
356.107	20.36
356.477	20.41
356.847	20.44
357.217	20.5
357.587	20.55
357.957	20.58
358.327	20.65
358.697	20.74
359.066	20.78
359.436	20.84
359.806	20.87
360.176	20.94
360.546	20.99
360.915	21.04
361.285	21.03
361.654	21.09
362.024	21.16
362.393	21.2
362.763	21.22
363.132	21.29
363.502	21.33
363.871	21.39
364.24	21.44
364.61	21.51
364.979	21.59
365.348	21.71
365.717	21.77
366.087	21.8
366.456	21.86
366.825	21.94
367.194	22
367.563	22.09
367.932	22.17
368.301	22.23
368.669	22.29
369.038	22.35
369.407	22.43
369.776	22.5
370.145	22.6
370.513	22.67
370.882	22.75
371.25	22.84
371.619	22.93
371.988	22.99
372.356	23.1
372.724	23.17
373.093	23.25
373.461	23.34
373.83	23.42
374.198	23.51
374.566	23.6
374.934	23.62
375.303	23.67
375.671	23.69
376.039	23.77
376.407	23.82
376.775	23.87
377.143	23.94
377.511	23.98
377.879	24.06
378.247	24.13
378.615	24.18
378.982	24.34
379.35	24.44
379.718	24.57
380.086	24.67
380.453	24.76
380.821	24.87
381.188	24.95
381.556	25.04
381.923	25.14
382.291	25.22
382.658	25.31
383.026	25.34
383.393	25.42
383.76	25.49
384.128	25.54
384.495	25.62
384.862	25.69
385.229	25.8
385.596	25.87
385.963	25.92
386.33	25.99
386.697	26.09
387.064	26.18
387.431	26.24
387.798	26.3
388.165	26.42
388.532	26.46
388.899	26.54
389.265	26.61
389.632	26.7
389.999	26.78
390.365	26.86
390.732	26.91
391.098	26.95
391.465	27.03
391.831	27.09
392.198	27.12
392.564	27.21
392.93	27.27
393.297	27.31
393.663	27.38
394.029	27.45
394.395	27.52
394.762	27.6
395.128	27.69
395.494	27.76
395.86	27.87
396.226	27.95
396.592	28.03
396.958	28.11
397.323	28.2
397.689	28.29
398.055	28.36
398.421	28.44
398.787	28.51
399.152	28.59
399.518	28.68
399.883	28.74
400.249	28.83
400.615	28.91
400.98	29
401.345	29.07
401.711	29.15
402.076	29.23
402.442	29.3
402.807	29.34
403.172	29.41
403.537	29.47
403.902	29.56
404.268	29.62
404.633	29.69
404.998	29.76
405.363	29.82
405.728	29.89
406.093	29.95
406.457	30.02
406.822	30.14
407.187	30.23
407.552	30.32
407.917	30.37
408.281	30.45
408.646	30.55
409.011	30.62
409.375	30.69
409.74	30.74
410.104	30.81
410.469	30.9
410.833	30.98
411.197	31.03
411.562	31.1
411.926	31.17
412.29	31.24
412.655	31.28
413.019	31.35
413.383	31.43
413.747	31.54
414.111	31.65
414.475	31.73
414.839	31.84
415.203	31.95
415.567	32.05
415.931	32.18
416.295	32.26
416.658	32.35
417.022	32.43
417.386	32.52
417.749	32.59
418.113	32.67
418.477	32.73
418.84	32.79
419.204	32.85
419.567	32.91
419.931	32.98
420.294	33.08
420.657	33.17
421.021	33.26
421.384	33.36
421.747	33.43
422.11	33.52
422.473	33.64
422.836	33.74
423.199	33.81
423.562	33.87
423.925	33.95
424.288	34
424.651	34.06
425.014	34.16
425.377	34.21
425.74	34.27
426.102	34.35
426.465	34.44
426.828	34.5
427.19	34.59
427.553	34.7
427.916	34.79
428.278	34.89
428.641	34.98
429.003	35.04
429.365	35.13
429.728	35.24
430.09	35.31
430.452	35.32
430.814	35.37
431.177	35.45
431.539	35.49
431.901	35.56
432.263	35.63
432.625	35.71
432.987	35.8
433.349	35.88
433.711	35.96
434.072	36.05
434.434	36.17
434.796	36.32
435.158	36.45
435.519	36.56
435.881	36.63
436.243	36.71
436.604	36.79
436.966	36.9
437.327	36.95
437.689	36.99
438.05	37.05
438.411	37.11
438.773	37.14
439.134	37.19
439.495	37.28
439.856	37.37
440.218	37.44
440.579	37.53
440.94	37.55
441.301	37.64
441.662	37.74
442.023	37.81
442.384	37.9
442.745	37.98
443.105	38.03
443.466	38.06
443.827	38.1
444.188	38.15
444.548	38.19
444.909	38.24
445.269	38.34
445.63	38.41
445.99	38.46
446.351	38.53
446.711	38.56
447.072	38.62
447.432	38.73
447.792	38.81
448.153	38.86
448.513	38.93
448.873	39.01
449.233	39.01
449.593	39.04
449.953	39.08
450.313	39.11
450.673	39.14
451.033	39.21
451.393	39.21
451.753	39.23
452.113	39.47
452.472	39.49
452.832	39.53
453.192	39.59
453.551	39.66
453.911	39.74
454.271	39.84
454.63	39.93
454.989	40.01
455.349	40.09
455.708	40.13
456.068	40.07
456.427	40.12
456.786	40.18
457.145	40.26
457.505	40.33
457.864	40.44
458.223	40.53
458.582	40.62
458.941	40.68
459.3	40.72
459.659	40.77
460.018	40.83
460.376	40.86
460.735	40.89
461.094	40.89
461.453	40.9
461.811	40.85
462.17	40.84
462.529	40.83
462.887	40.82
463.246	40.81
463.604	40.83
463.963	40.83
464.321	40.87
464.679	40.87
465.038	40.86
465.396	40.87
465.754	40.91
466.112	40.9
466.47	40.91
466.828	40.95
467.186	40.98
467.544	40.99
467.902	41.01
468.26	41.01
468.618	41.05
468.976	41.07
469.334	41.07
469.692	41.06
470.049	41.06
470.407	41.01
470.765	40.97
471.122	40.98
471.48	41
471.837	41.03
472.195	41.07
472.552	41.09
472.909	41.1
473.267	41.14
473.624	41.17
473.981	41.17
474.338	41.19
474.696	41.22
475.053	41.22
475.41	41.23
475.767	41.23
476.124	41.2
476.481	41.17
476.838	41.19
477.194	41.17
477.551	41.14
477.908	41.16
478.265	41.15
478.621	41.14
478.978	41.14
479.335	41.12
479.691	41.15
480.048	41.17
480.404	41.16
480.761	41.13
481.117	41.13
481.473	41.12
481.83	41.11
482.186	41.1
482.542	41.11
482.898	41.11
483.255	41.13
483.611	41.1
483.967	41.09
484.323	41.11
484.679	41.11
485.035	41.12
485.39	41.13
485.746	41.14
486.102	41.14
486.458	41.11
486.814	41.1
487.169	41.07
487.525	41.06
487.88	41.04
488.236	41.03
488.591	41.04
488.947	41.02
489.302	41.01
489.658	40.96
490.013	40.96
490.368	40.92
490.723	40.87
491.079	40.84
491.434	40.8
491.789	40.77
492.144	40.75
492.499	40.7
492.854	40.65
493.209	40.62
493.564	40.61
493.919	40.58
494.273	40.57
494.628	40.55
494.983	40.54
495.338	40.52
495.692	40.52
496.047	40.49
496.401	40.47
496.756	40.45
497.11	40.39
497.465	40.35
497.819	40.29
498.173	40.25
498.528	40.27
498.882	40.3
499.236	40.35
499.59	40.37
499.944	40.42
500.298	40.44
500.652	40.45
501.006	40.47
501.36	40.48
501.714	40.48
502.068	40.47
502.422	40.44
502.776	40.4
503.129	40.35
503.483	40.3
503.837	40.23
504.19	40.19
504.544	40.11
504.897	40.03
505.251	39.94
505.604	39.85
505.958	39.76
506.311	39.69
506.664	39.6
507.017	39.48
507.371	39.37
507.724	39.24
508.077	39.11
508.43	39.01
508.783	38.94
509.136	38.86
509.489	38.82
509.842	38.77
510.195	38.68
510.547	38.62
510.9	38.55
511.253	38.47
511.606	38.4
511.958	38.33
512.311	38.25
512.663	38.16
513.016	38.09
513.368	37.97
513.721	37.9
514.073	37.83
514.425	37.76
514.778	37.7
515.13	37.65
515.482	37.58
515.834	37.51
516.186	37.45
516.538	37.42
516.89	37.38
517.242	37.37
517.594	37.3
517.946	37.25
518.298	37.18
518.65	37.11
519.001	37.02
519.353	36.94
519.705	36.86
520.056	36.79
520.408	36.63
520.759	36.51
521.111	36.41
521.462	36.34
521.814	36.26
522.165	36.19
522.516	36.1
522.868	36.02
523.219	35.92
523.57	35.79
523.921	35.7
524.272	35.67
524.623	35.59
524.974	35.48
525.325	35.36
525.676	35.23
526.027	35.09
526.378	35.02
526.728	34.94
527.079	34.87
527.43	34.85
527.78	34.74
528.131	34.62
528.481	34.5
528.832	34.43
529.182	34.35
529.533	34.29
529.883	34.26
530.233	34.16
530.584	34.05
530.934	33.98
531.284	33.85
531.634	33.76
531.984	33.71
532.334	33.63
532.684	33.53
533.034	33.44
533.384	33.36
533.734	33.27
534.084	33.19
534.434	33.13
534.783	33.06
535.133	32.96
535.483	32.86
535.832	32.75
536.182	32.66
536.531	32.56
536.881	32.51
537.23	32.43
537.58	32.32
537.929	32.19
538.278	32.52
538.628	32.34
538.977	32.27
539.326	32.19
539.675	32.08
540.024	32.02
540.373	31.95
540.722	31.83
541.071	31.72
541.42	31.65
541.769	31.58
542.117	31.04
542.466	31
542.815	30.91
543.163	30.82
543.512	30.75
543.861	30.66
544.209	30.58
544.558	30.5
544.906	30.4
545.254	30.28
545.603	30.2
545.951	30.16
546.299	30.09
546.647	30.04
546.996	29.97
547.344	29.91
547.692	29.82
548.04	29.74
548.388	29.68
548.736	29.63
549.083	29.56
549.431	29.45
549.779	29.32
550.127	29.23
550.475	29.11
550.822	28.98
551.17	28.86
551.517	28.8
551.865	28.68
552.212	28.56
552.56	28.46
552.907	28.34
553.254	28.25
553.602	28.16
553.949	28.06
554.296	27.96
554.643	27.89
554.99	27.8
555.337	27.66
555.684	27.56
556.031	27.44
556.378	27.34
556.725	27.24
557.072	27.14
557.419	27.06
557.765	26.97
558.112	26.87
558.459	26.74
558.805	26.67
559.152	26.59
559.498	26.49
559.845	26.42
560.191	26.33
560.538	26.26
560.884	26.16
561.23	26.08
561.576	26.02
561.923	25.92
562.269	25.85
562.615	25.75
562.961	25.7
563.307	25.68
563.653	25.64
563.999	25.54
564.344	25.48
564.69	25.45
565.036	25.38
565.382	25.28
565.727	25.23
566.073	25.15
566.419	25.06
566.764	24.95
567.11	24.83
567.455	24.71
567.8	24.65
568.146	24.58
568.491	24.48
568.836	24.4
569.181	24.36
569.527	24.29
569.872	24.22
570.217	24.14
570.562	24.07
570.907	24.02
571.252	23.96
571.597	23.9
571.941	23.8
572.286	23.75
572.631	23.72
572.976	23.67
573.32	23.68
573.665	23.58
574.009	23.54
574.354	23.49
574.698	23.47
575.043	23.42
575.387	23.41
575.731	23.35
576.076	23.35
576.42	23.3
576.764	23.2
577.108	23.2
577.452	23.15
577.796	23.13
578.14	23.08
578.484	23.05
578.828	23.01
579.172	22.98
579.516	22.92
579.86	22.87
580.203	22.82
580.547	22.79
580.891	22.73
581.234	22.67
581.578	22.62
581.921	22.61
582.264	22.58
582.608	22.55
582.951	22.53
583.294	22.51
583.638	22.45
583.981	22.44
584.324	22.42
584.667	22.38
585.01	22.36
585.353	22.31
585.696	22.28
586.039	22.24
586.382	22.22
586.725	22.19
587.067	22.18
587.41	22.16
587.753	22.13
588.095	22.12
588.438	22.11
588.781	22.07
589.123	22.05
589.465	22
589.808	21.95
590.15	21.93
590.492	21.83
590.835	21.8
591.177	21.81
591.519	21.72
591.861	21.67
592.203	21.66
592.545	21.64
592.887	21.6
593.229	21.56
593.571	21.53
593.913	21.44
594.254	21.43
594.596	21.4
594.938	21.32
595.279	21.28
595.621	21.25
595.963	21.24
596.304	21.21
596.645	21.21
596.987	21.16
597.328	21.15
597.669	21.08
598.011	21.07
598.352	21.05
598.693	21.03
599.034	21
599.375	20.98
599.716	20.93
600.057	20.91
600.398	20.85
600.739	20.81
601.08	20.81
601.42	20.8
601.761	20.79
602.102	20.8
602.442	20.74
602.783	20.71
603.123	20.64
603.464	20.62
603.804	20.57
604.145	20.5
604.485	20.49
604.825	20.45
605.166	20.44
605.506	20.44
605.846	20.39
606.186	20.35
606.526	20.34
606.866	20.32
607.206	20.3
607.546	20.3
607.886	20.27
608.225	20.27
608.565	20.21
608.905	20.17
609.245	20.14
609.584	20.11
609.924	20.1
610.263	20.09
610.603	20.08
610.942	20.05
611.281	20.02
611.621	20.01
611.96	19.96
612.299	19.96
612.638	19.91
612.978	19.85
613.317	19.81
613.656	19.76
613.995	19.74
614.334	19.69
614.672	19.64
615.011	19.59
615.35	19.56
615.689	19.51
616.027	19.46
616.366	19.46
616.705	19.42
617.043	19.34
617.382	19.31
617.72	19.29
618.059	19.23
618.397	19.19
618.735	19.15
619.073	19.15
619.412	19.08
619.75	19.04
620.088	18.99
620.426	18.98
620.764	18.95
621.102	18.94
621.44	18.92
621.778	18.93
622.115	18.86
622.453	18.83
622.791	18.81
623.129	18.8
623.466	18.79
623.804	18.73
624.141	18.7
624.479	18.7
624.816	18.68
625.153	18.63
625.491	18.63
625.828	18.63
626.165	18.61
626.502	18.57
626.84	18.54
627.177	18.52
627.514	18.47
627.851	18.42
628.188	18.36
628.524	18.3
628.861	18.22
629.198	18.15
629.535	18.12
629.871	18.08
630.208	18
630.545	17.97
630.881	17.89
631.218	17.87
631.554	17.81
631.89	17.81
632.227	17.77
632.563	17.79
632.899	17.74
633.235	17.69
633.572	17.65
633.908	17.58
634.244	17.6
634.58	17.51
634.916	17.46
635.251	17.38
635.587	17.33
635.923	17.29
636.259	17.19
636.595	17.15
636.93	17.13
637.266	17.08
637.601	17.03
637.937	16.94
638.272	16.96
638.608	16.89
638.943	16.88
639.278	16.78
639.613	16.72
639.949	16.72
640.284	16.67
640.619	16.62
640.954	16.56
641.289	16.55
641.624	16.51
641.959	16.43
642.294	16.37
642.628	16.29
642.963	16.32
643.298	16.28
643.632	16.25
643.967	16.24
644.302	16.13
644.636	16.08
644.971	16.06
645.305	16
645.639	16
645.974	15.98
646.308	15.94
646.642	15.86
646.976	15.81
647.31	15.75
647.644	15.71
647.978	15.65
648.312	15.59
648.646	15.53
648.98	15.51
649.314	15.41
649.647	15.38
649.981	15.36
650.315	15.35
650.648	15.31
650.982	15.28
651.315	15.23
651.649	15.25
651.982	15.25
652.316	15.25
652.649	15.2
652.982	15.21
653.315	15.2
653.648	15.19
653.982	15.14
654.315	15.12
654.648	15.04
654.981	15.02
655.313	15.05
655.646	15.01
655.979	14.99
656.312	14.98
656.644	14.96
656.977	14.97
657.31	14.92
657.642	14.9
657.975	14.88
658.307	14.86
658.64	14.85
658.972	14.78
659.304	14.76
659.636	14.69
659.969	14.64
660.301	14.64
660.633	14.54
660.965	14.56
661.297	14.54
661.629	14.47
661.961	14.48
662.292	14.4
662.624	14.39
662.956	14.34
663.288	14.37
663.619	14.34
663.951	14.26
664.282	14.27
664.614	14.14
664.945	14.08
665.276	14.09
665.608	14.03
665.939	13.99
666.27	13.9
666.601	13.84
666.933	13.75
667.264	13.76
667.595	13.7
667.926	13.67
668.256	13.69
668.587	13.7
668.918	13.65
669.249	13.63
669.58	13.6
669.91	13.58
670.241	13.6
670.571	13.63
670.902	13.67
671.232	13.67
671.563	13.59
671.893	13.57
672.223	13.52
672.554	13.57
672.884	13.65
673.214	13.67
673.544	13.78
673.874	13.76
674.204	13.73
674.534	13.61
674.864	13.63
675.194	13.67
675.524	13.72
675.853	13.75
676.183	13.63
676.513	13.5
676.842	13.48
677.172	13.39
677.501	13.42
677.831	13.35
678.16	13.3
678.489	13.34
678.819	13.3
679.148	13.23
679.477	13.21
679.806	13.16
680.135	13.09
680.464	12.99
680.793	12.97
681.122	12.89
681.451	12.83
681.78	12.84
682.108	12.74
682.437	12.69
682.766	12.62
683.094	12.56
683.423	12.56
683.751	12.57
684.08	12.56
684.408	12.48
684.737	12.53
685.065	12.49
685.393	12.5
685.721	12.54
686.049	12.6
686.377	12.66
686.705	12.65
687.033	12.74
687.361	12.8
687.689	12.9
688.017	12.92
688.345	12.83
688.673	12.85
689.0	12.91
689.328	12.84
689.655	12.9
689.983	12.93
690.31	12.95
690.638	12.87
690.965	12.73
691.292	12.58
691.62	12.54
691.947	12.57
692.274	12.62
692.601	12.5
692.928	12.48
693.255	12.35
693.582	12.23
693.909	12.13
694.236	12.13
694.562	12.26
694.889	12.36
695.216	12.38
695.542	12.43
695.869	12.41
696.196	12.4
696.522	12.37
696.848	12.4
697.175	12.39
697.501	12.47
697.827	12.44
698.154	12.33
698.48	12.25
698.806	12.21
699.132	12.08
699.458	12.05
699.784	12.08
700.11	12.03
700.435	11.98
700.761	11.87
701.087	11.81
701.413	11.78
701.738	11.76
702.064	11.73
702.389	11.73
702.715	11.73
703.04	11.71
703.366	11.6
703.691	11.71
704.016	11.68
704.341	11.79
704.666	11.8
704.992	11.8
705.317	11.86
705.642	11.78
705.967	11.7
706.291	11.78
706.616	11.82
706.941	11.85
707.266	11.78
707.59	11.86
707.915	11.84
708.24	11.77
708.564	11.75
708.889	11.78
709.213	11.85
709.537	11.94
709.862	11.89
710.186	11.75
710.51	11.72
710.834	11.73
711.158	11.78
711.482	11.73
711.806	11.77
712.13	11.77
712.454	11.77
712.778	11.85
713.102	11.87
713.426	11.9
713.749	11.95
714.073	11.99
714.396	11.94
714.72	11.84
715.043	11.87
715.367	11.84
715.69	11.91
716.013	11.92
716.337	11.84
716.66	11.76
716.983	11.81
717.306	11.78
717.629	11.68
717.952	11.69
718.275	11.59
718.598	11.55
718.921	11.63
719.243	11.53
719.566	11.43
719.889	11.43
720.211	11.39
720.534	11.17
720.856	11.17
721.179	11.2
721.501	11.19
721.823	11.25
722.146	11.43
722.468	11.36
722.79	11.35
723.112	11.36
723.434	11.45
723.756	11.56
724.078	11.65
724.4	11.57
724.722	11.5
725.044	11.42
725.366	11.28
725.687	11.11
726.009	10.95
726.33	10.95
726.652	10.96
726.973	10.8
727.295	10.68
727.616	10.77
727.938	10.85
728.259	10.99
728.58	10.97
728.901	11.05
729.222	11.15
729.543	11.3
729.864	11.34
730.185	11.26
730.506	11.33
730.827	11.41
731.148	11.32
731.468	11.32
731.789	11.21
732.11	11.16
732.43	11.15
732.751	11.01
733.071	11.03
733.392	10.98
733.712	10.96
734.032	11.12
734.352	11.12
734.673	11.14
734.993	11.21
735.313	11.2
735.633	11.41
735.953	11.48
736.273	11.42
736.593	11.38
736.912	11.32
737.232	11.33
737.552	11.2
737.871	11.18
738.191	11.15
738.51	11.34
738.83	11.57
739.149	11.55
739.469	11.67
739.788	11.7
740.107	11.62
740.426	11.78
740.746	12
741.065	11.98
741.384	11.92
741.703	11.94
742.022	11.48
742.341	11.35
742.659	11.27
742.978	10.98
743.297	11.11
743.615	11.2
743.934	11.02
744.253	10.83
744.571	10.89
744.89	11.05
745.208	10.99
745.526	11.25
745.845	10.98
746.163	11.16
746.481	11.56
746.799	11.47
747.117	11.58
747.435	11.73
747.753	12.03
748.071	11.89
748.389	12.01
748.706	12.05
749.024	12.11
749.342	12.6
749.659	12.57
749.977	12.24
750.295	12.37
750.612	12.39
750.929	12.26
751.247	12.04
751.564	12.02
751.881	11.8
752.198	11.95
752.516	11.84
752.833	11.55
753.15	11.25
753.467	11.26
753.783	11.13
754.1	11.03
754.417	11.03
754.734	11.18
755.05	11.47
755.367	11.35
755.684	11.25
756.0	11.31
756.317	11.36
756.633	11.1
756.949	11.08
757.266	11.12
757.582	10.99
757.898	11.05
758.214	10.78
758.53	10.5
758.846	10.66
759.162	10.54
759.478	10.33
759.794	10.46
760.11	10.71
760.426	10.67
760.741	10.74
761.057	10.66
761.372	10.46
761.688	10.52
762.003	10.64
762.319	10.42
762.634	10.44
762.949	10.43
763.265	10.21
763.58	10.37
763.895	10.33
764.21	10.24
764.525	10.14
764.84	10.32
765.155	10.34
765.47	10.32
765.785	10.28
766.099	10.43
766.414	10.57
766.729	10.58
767.043	10.8
767.358	10.89
767.672	10.61
767.987	10.73
768.301	10.91
768.615	11.19
768.929	10.93
769.244	11.14
769.558	11.23
769.872	11.21
770.186	11.29
770.5	10.97
770.814	10.73
771.127	11.27
771.441	11.45
771.755	11.52
772.069	11.02
772.382	11.16
772.696	11.16
773.009	11.2
773.323	11.44
773.636	11.44
773.95	11.75
774.263	12.32
774.576	12.16
774.889	12.24
775.202	11.82
775.515	12.28
775.828	12.26
776.141	12.38
776.454	12.03
776.767	12.03
777.08	12.06
777.393	11.68
777.705	11.26
778.018	11.03
778.33	10.77
778.643	10.89
778.955	10.64
779.268	10.64
779.58	10.49
779.892	10.68
780.205	10.5
780.517	10.08
780.829	10.24
781.141	10.59
781.453	10.69
781.765	11.24
782.077	11.28
782.388	11.37
782.7	11.52
783.012	11.61
783.324	11.59
783.635	11.26
783.947	12.04
784.258	11.55
784.57	11.48
784.881	11.62
785.192	10.38
785.504	10.34
785.815	9.72
786.126	9.73
786.437	10.05
786.748	9.76
787.059	10.15
787.37	9.88
787.681	10.76
787.992	10.77
788.302	11.3
788.613	11.85
788.924	11.67
789.234	12.68
789.545	12.84
789.855	12.41
790.166	12.47
790.476	12.88
790.786	12.87
791.096	12.46
791.407	12.72
791.717	12.28
792.027	12.63
792.337	12.81
792.647	12.53
792.957	12.67
793.266	12.71
793.576	13.08
793.886	12.18
794.196	12.07
794.505	13.53
794.815	13.18
795.124	13.13
795.434	13.3
795.743	12.81
796.052	12.61
796.362	12.34
796.671	12.29
796.98	12.31
797.289	12.55
797.598	12.24
797.907	10.9
798.216	10.7
798.525	10.76
798.834	10.56
799.142	10.97
799.451	10.75
799.76	10.76
800.068	10.92
800.377	11.07
800.685	11.87
800.994	12.31
801.302	12.26
801.61	12.54
801.918	12.41
802.227	12.15
802.535	12.63
802.843	13.18
803.151	13.01
803.459	13
803.767	12.88
804.074	12.37
804.382	12.49
804.69	12.99
804.998	13.02
805.305	12.86
805.613	13
805.92	12.64
806.228	11.99
806.535	11.5
806.842	11.43
807.15	10.84
807.457	10.52
807.764	9.87
808.071	9.27
808.378	9.41
808.685	9.48
808.992	9.18
809.299	9.29
809.605	9.68
809.912	10.36
810.219	10.54
810.525	10.97
810.832	10.95
811.138	11.44
811.445	11.21
811.751	10.82
812.058	10.68
812.364	11.59
812.67	11.55
812.976	10.84
813.282	10.14
813.588	9.53
813.894	9.71
814.2	9.92
814.506	10.16
814.812	10.27
815.118	10.84
815.423	11.06
815.729	11.21
816.035	11.59
816.34	12.25
816.646	13.33
816.951	14.01
817.256	13.95
817.562	13.89
817.867	13.76
818.172	14.33
818.477	14.1
818.782	13.88
819.087	13.76
819.392	13.5
819.697	13.27
820.002	12.77
820.306	12.5
820.611	12.05
820.916	11.64
821.22	11.13
821.525	10.57
821.829	10.47
822.134	10.37
822.438	9.97
822.742	10.04
823.047	10.05
823.351	10.01
823.655	10.01
823.959	9.91
824.263	9.95
824.567	10.04
824.871	10.07
825.174	10.17
825.478	10.7
825.782	10.79
826.086	10.74
826.389	10.77
826.693	10.98
826.996	11.01
827.3	11.23
827.603	11.39
827.906	11.51
828.209	11.88
828.513	12.08
828.816	11.63
829.119	11.66
829.422	11.7
829.725	11.78
830.028	11.46
830.33	11.34
830.633	11.52
830.936	11.42
831.238	11.15
831.541	10.39
831.844	9.63
832.146	9.45
832.448	9.46
832.751	9.3
833.053	9.34
833.355	10.11
833.657	10.31
833.96	10.14
834.262	10.51
834.564	10.69
834.865	11.01
835.167	12.41
835.469	12.41
835.771	12.07
836.073	11.68
836.374	11.84
836.676	11.21
836.977	11.09
837.279	11.31
837.58	11.27
837.882	11.38
838.183	12.13
838.484	10.96
838.785	10.99
839.086	11.57
839.387	12.51
839.688	12.59
839.989	13.17
840.29	13.57
840.591	14.02
840.892	13.92
841.192	14.55
841.493	14.01
841.794	14.25
842.094	14.77
842.394	14.25
842.695	6.28
842.995	4.63
843.295	4.35
843.596	4.55
843.896	3.37
844.196	3.19
844.496	2.71
844.796	2.46
845.096	1.82
845.396	1.13
845.695	3
845.995	15.95
846.295	17.98
846.594	18.2
846.894	18.12
847.194	17.56
847.493	17.17
847.792	16.8
848.092	16.74
848.391	15.49
848.69	15.69
848.989	14
849.288	11.95
849.587	9.99
849.886	9.93
850.185	9.7
850.484	10.97
850.783	11.39
851.081	12.11
851.38	13.63
851.679	16.4
851.977	17.48
852.276	18.14
852.574	19.5
852.872	20.26
853.171	19.71
853.469	20.28
853.767	20.89
854.065	20.58
854.363	19.14
854.661	18.64
854.959	17.49
855.257	14.5
855.555	14.26
855.853	12.57
856.15	13.55
856.448	14.07
856.746	14.27
857.043	13.15
857.341	14.93
857.638	16.54
857.935	15.52
858.233	16.23
858.53	18.82
858.827	20.84
859.124	21.73
859.421	21.17
859.718	21.57
860.015	21.71
860.312	21.49
860.609	20.72
860.905	20.56
861.202	18.58
861.499	18.23
861.795	19.2
862.092	15.86
862.388	14.11
862.684	14.24
862.981	14.27
863.277	9.4
863.573	10.18
863.869	11.9
864.165	11.32
864.461	15.32
864.757	15.09
865.053	14.53
865.349	16.63
865.645	17.24
865.94	17.14
866.236	16.32
866.532	20.97
866.827	19.95
867.123	17.97
867.418	18.94
867.713	15.47
868.009	15.4
868.304	16.13
868.599	16.18
868.894	18.27
869.189	19.73
869.484	21.13
869.779	21.79
870.074	23.59
870.369	25.78
870.663	26.02
870.958	26.39
871.252	24.63
871.547	21.19
871.842	20.33
872.136	16.58
872.43	14.23
872.725	11.44
873.019	8.19
873.313	8.24
873.607	4.71
873.901	3.99
874.195	4.51
874.489	6.55
874.783	7.33
875.077	7.9
875.37	13.5
875.664	15.16
875.958	19.81
876.251	22.55
876.545	21.15
876.838	21.34
877.132	23.46
877.425	24.73
877.718	24.75
878.011	24.92
878.305	25.86
878.598	21.85
878.891	20.87
879.184	19.29
879.476	17.85
879.769	15.3
880.062	14.81
880.355	11.55
880.647	10.73
880.94	8.23
881.232	7.09
881.525	5.65
881.817	6.61
882.11	7.42
882.402	5.4
882.694	4.47
882.986	6.01
883.278	7.07
883.57	7.48
883.862	8.2
884.154	8.81
884.446	9.57
884.738	10.26
885.03	10.93
885.321	10.78
885.613	11.19
885.904	11.67
886.196	12.13
886.487	12.47
886.779	12.58
887.07	12.51
887.361	12.73
887.652	13.13
887.943	12.35
888.234	11.54
888.525	11.63
888.816	11.75
889.107	12.71
889.398	12.87
889.689	13.56
889.979	13.88
890.27	15.66
890.56	16.92
890.851	16.61
891.141	18.74
891.432	21.14
891.722	23.24
