Data from groin3_Reflection__2__12-31-04-435.txt Node

Date: Thu Aug 04 12:31:04 AEST 2022
User: kathy
Spectrometer: JAZA2503
Trigger mode: 0
Integration Time (sec): 2.883200E-1
Scans to average: 10
Electric dark correction enabled: true
Nonlinearity correction enabled: true
Boxcar width: 5
XAxis mode: Wavelengths
Number of Pixels in Spectrum: 2048
>>>>>Begin Spectral Data<<<<<
189.467	-141.44
189.852	-288.89
190.237	-8007.88
190.622	-453
191.007	-135.82
191.392	-208.86
191.777	-221.89
192.162	0.55
192.546	-119.94
192.931	-213.09
193.316	-214.53
193.701	-401.65
194.086	215.21
194.47	155.66
194.855	271.15
195.24	5325.1
195.624	200.29
196.009	168.6
196.393	99.26
196.778	-200.53
197.163	66.23
197.547	60.29
197.931	49.87
198.316	46.42
198.7	47.59
199.085	41.34
199.469	30.85
199.853	33.01
200.237	35.87
200.622	35.68
201.006	25.98
201.39	24.05
201.774	23.5
202.158	27.14
202.542	27.03
202.926	17.17
203.31	10.84
203.694	18.06
204.078	11.42
204.462	12.36
204.846	11.17
205.23	7.85
205.614	6.02
205.998	-2.68
206.381	-1.79
206.765	-1.36
207.149	10.22
207.532	22.39
207.916	19.7
208.3	24.36
208.683	23.13
209.067	23.28
209.45	28.45
209.834	33.62
210.217	36.5
210.601	34.8
210.984	36.07
211.367	41.7
211.751	37.08
212.134	35.48
212.517	31.84
212.901	37.62
213.284	37.05
213.667	38.5
214.05	35.56
214.433	35.8
214.816	33.58
215.199	35.25
215.582	28.62
215.965	23.83
216.348	22.75
216.731	27.98
217.114	21.01
217.497	19.23
217.88	19.57
218.262	19.29
218.645	20.03
219.028	18
219.411	12.66
219.793	13.4
220.176	15.84
220.559	14.25
220.941	9.27
221.324	6.96
221.706	6.8
222.089	5.02
222.471	6.05
222.853	4.1
223.236	5.9
223.618	7.06
224	8.11
224.383	6.71
224.765	8.43
225.147	11.1
225.529	12.44
225.912	12.28
226.294	11.34
226.676	9.84
227.058	8.88
227.44	7.68
227.822	6.47
228.204	5.13
228.586	5.08
228.968	4.73
229.349	3.99
229.731	3.93
230.113	3.32
230.495	3.31
230.877	3.11
231.258	3.37
231.64	3.3
232.022	2.93
232.403	2.86
232.785	3.33
233.166	3.33
233.548	3.12
233.929	2.7
234.311	3.04
234.692	2.71
235.073	3.12
235.455	3.19
235.836	3.45
236.217	3.92
236.599	3.67
236.98	2.98
237.361	2.61
237.742	2.61
238.123	3.11
238.504	3.07
238.885	3.08
239.266	2.9
239.647	2.64
240.028	2.44
240.409	2.24
240.79	2.69
241.171	2.68
241.552	2.65
241.933	2.53
242.313	2.23
242.694	2.27
243.075	2.38
243.456	2.26
243.836	2.37
244.217	2.32
244.597	2.37
244.978	2.27
245.358	2.31
245.739	2.26
246.119	2.23
246.5	2.29
246.88	2.17
247.26	2.07
247.641	2.04
248.021	2.02
248.401	2.01
248.781	1.97
249.162	1.95
249.542	1.93
249.922	1.95
250.302	2.02
250.682	1.94
251.062	2.01
251.442	1.93
251.822	1.97
252.202	1.93
252.582	1.97
252.961	1.94
253.341	1.94
253.721	1.93
254.101	1.95
254.48	1.86
254.86	1.82
255.24	1.89
255.619	2.15
255.999	2.02
256.378	1.96
256.758	1.93
257.137	1.95
257.517	1.86
257.896	1.85
258.276	1.79
258.655	1.74
259.034	1.71
259.414	1.58
259.793	1.44
260.172	1.44
260.551	1.42
260.93	1.37
261.309	1.33
261.688	1.36
262.068	1.35
262.447	1.39
262.825	1.34
263.204	1.33
263.583	1.38
263.962	1.47
264.341	1.53
264.72	1.6
265.099	1.61
265.477	1.69
265.856	1.58
266.235	1.53
266.613	1.31
266.992	1.35
267.371	1.4
267.749	1.44
268.128	1.41
268.506	1.37
268.884	1.31
269.263	1.28
269.641	1.27
270.02	1.29
270.398	1.28
270.776	1.39
271.154	1.44
271.533	1.42
271.911	1.26
272.289	1.21
272.667	1.25
273.045	1.22
273.423	1.31
273.801	1.26
274.179	1.28
274.557	1.27
274.935	1.3
275.313	1.24
275.69	1.2
276.068	1.27
276.446	1.3
276.824	1.27
277.201	1.29
277.579	1.19
277.957	1.22
278.334	1.16
278.712	1.15
279.089	1.06
279.467	1.12
279.844	1.19
280.222	1.16
280.599	1.19
280.976	1.13
281.354	1.1
281.731	1.16
282.108	1.21
282.485	1.23
282.863	1.27
283.24	1.3
283.617	1.26
283.994	1.22
284.371	1.25
284.748	1.22
285.125	1.26
285.502	1.28
285.879	1.26
286.256	1.23
286.633	1.29
287.009	1.32
287.386	1.36
287.763	1.42
288.139	1.43
288.516	1.47
288.893	1.49
289.269	1.52
289.646	1.6
290.022	1.63
290.399	1.65
290.775	1.66
291.152	1.67
291.528	1.67
291.904	1.69
292.281	1.71
292.657	1.73
293.033	1.76
293.41	1.83
293.786	1.86
294.162	1.92
294.538	2.01
294.914	2.08
295.29	2.13
295.666	2.22
296.042	2.29
296.418	2.39
296.794	2.48
297.17	2.54
297.546	2.61
297.921	2.67
298.297	2.77
298.673	2.85
299.048	2.92
299.424	3.01
299.8	3.1
300.175	3.21
300.551	3.3
300.926	3.38
301.302	3.5
301.677	3.58
302.053	3.7
302.428	3.73
302.803	3.8
303.179	3.9
303.554	3.98
303.929	4.08
304.304	4.15
304.68	4.24
305.055	4.33
305.43	4.43
305.805	4.5
306.18	4.56
306.555	4.67
306.93	4.75
307.305	4.78
307.679	4.83
308.054	4.82
308.429	4.82
308.804	4.83
309.179	4.85
309.553	4.85
309.928	4.88
310.303	4.9
310.677	4.94
311.052	4.96
311.426	5.03
311.801	5.07
312.175	5.15
312.55	5.23
312.924	5.26
313.298	5.3
313.673	5.37
314.047	5.42
314.421	5.46
314.795	5.53
315.17	5.58
315.544	5.63
315.918	5.69
316.292	5.74
316.666	5.82
317.04	5.94
317.414	6.07
317.788	6.16
318.162	6.26
318.535	6.43
318.909	6.56
319.283	6.7
319.657	6.81
320.03	6.97
320.404	7.19
320.778	7.53
321.151	8.02
321.525	8.55
321.898	9.14
322.272	9.88
322.645	10.59
323.019	11.4
323.392	12.27
323.765	13.35
324.139	14.41
324.512	15.49
324.885	16.61
325.258	17.68
325.632	18.53
326.005	19.3
326.378	19.92
326.751	20.48
327.124	20.86
327.497	21.14
327.87	21.37
328.243	21.6
328.616	21.76
328.988	21.87
329.361	21.94
329.734	21.95
330.107	21.92
330.479	21.85
330.852	21.76
331.225	21.68
331.597	21.49
331.97	21.37
332.342	21.12
332.715	20.94
333.087	20.69
333.46	20.5
333.832	20.4
334.204	20.29
334.577	20.27
334.949	20.17
335.321	20.04
335.693	19.91
336.065	19.74
336.438	19.56
336.81	19.37
337.182	19.24
337.554	19.1
337.926	18.96
338.298	18.84
338.669	18.67
339.041	18.56
339.413	18.52
339.785	18.43
340.157	18.36
340.528	18.29
340.9	18.23
341.272	18.16
341.643	18.15
342.015	18.2
342.386	18.35
342.758	18.54
343.129	18.73
343.501	18.91
343.872	19.03
344.243	19.12
344.615	19.09
344.986	19.08
345.357	19.09
345.728	19.15
346.099	19.13
346.471	19.14
346.842	19.16
347.213	19.16
347.584	19.23
347.955	19.23
348.326	19.26
348.697	19.29
349.067	19.33
349.438	19.38
349.809	19.48
350.18	19.69
350.55	19.78
350.921	19.87
351.292	20.01
351.662	20.11
352.033	20.23
352.403	20.34
352.774	20.42
353.144	20.47
353.515	20.5
353.885	20.56
354.255	20.57
354.626	20.61
354.996	20.66
355.366	20.69
355.736	20.69
356.107	20.69
356.477	20.72
356.847	20.72
357.217	20.79
357.587	20.87
357.957	20.94
358.327	21.04
358.697	21.07
359.066	21.12
359.436	21.19
359.806	21.26
360.176	21.36
360.546	21.43
360.915	21.49
361.285	21.54
361.654	21.57
362.024	21.61
362.393	21.65
362.763	21.72
363.132	21.78
363.502	21.85
363.871	21.89
364.24	21.94
364.61	22.03
364.979	22.13
365.348	22.23
365.717	22.38
366.087	22.47
366.456	22.57
366.825	22.7
367.194	22.82
367.563	22.94
367.932	23.1
368.301	23.25
368.669	23.38
369.038	23.49
369.407	23.64
369.776	23.73
370.145	23.87
370.513	23.99
370.882	24.11
371.25	24.25
371.619	24.39
371.988	24.51
372.356	24.66
372.724	24.81
373.093	24.95
373.461	25.11
373.83	25.26
374.198	25.41
374.566	25.59
374.934	25.71
375.303	25.86
375.671	26.02
376.039	26.19
376.407	26.37
376.775	26.56
377.143	26.76
377.511	26.93
377.879	27.14
378.247	27.38
378.615	27.58
378.982	27.84
379.35	28.06
379.718	28.27
380.086	28.47
380.453	28.63
380.821	28.82
381.188	29.02
381.556	29.21
381.923	29.41
382.291	29.58
382.658	29.76
383.026	29.94
383.393	30.16
383.76	30.37
384.128	30.6
384.495	30.84
384.862	31.02
385.229	31.23
385.596	31.45
385.963	31.65
386.33	31.82
386.697	32
387.064	32.17
387.431	32.31
387.798	32.48
388.165	32.63
388.532	32.76
388.899	32.88
389.265	33.02
389.632	33.16
389.999	33.27
390.365	33.42
390.732	33.52
391.098	33.62
391.465	33.73
391.831	33.83
392.198	33.96
392.564	34.08
392.93	34.19
393.297	34.31
393.663	34.42
394.029	34.55
394.395	34.7
394.762	34.85
395.128	35
395.494	35.15
395.86	35.28
396.226	35.38
396.592	35.52
396.958	35.67
397.323	35.78
397.689	35.92
398.055	36.05
398.421	36.16
398.787	36.32
399.152	36.45
399.518	36.56
399.883	36.69
400.249	36.81
400.615	36.93
400.98	37.03
401.345	37.13
401.711	37.2
402.076	37.28
402.442	37.36
402.807	37.38
403.172	37.46
403.537	37.5
403.902	37.53
404.268	37.61
404.633	37.64
404.998	37.67
405.363	37.72
405.728	37.79
406.093	37.82
406.457	37.87
406.822	37.96
407.187	38
407.552	38.1
407.917	38.19
408.281	38.25
408.646	38.33
409.011	38.44
409.375	38.46
409.74	38.5
410.104	38.54
410.469	38.58
410.833	38.58
411.197	38.61
411.562	38.62
411.926	38.64
412.29	38.69
412.655	38.73
413.019	38.74
413.383	38.81
413.747	38.89
414.111	39.02
414.475	39.1
414.839	39.22
415.203	39.34
415.567	39.41
415.931	39.51
416.295	39.58
416.658	39.64
417.022	39.7
417.386	39.76
417.749	39.77
418.113	39.78
418.477	39.82
418.84	39.86
419.204	39.87
419.567	39.91
419.931	39.94
420.294	39.99
420.657	40.07
421.021	40.14
421.384	40.21
421.747	40.31
422.11	40.39
422.473	40.46
422.836	40.49
423.199	40.51
423.562	40.56
423.925	40.62
424.288	40.64
424.651	40.68
425.014	40.7
425.377	40.73
425.74	40.77
426.102	40.81
426.465	40.86
426.828	40.92
427.19	40.98
427.553	41.04
427.916	41.05
428.278	41.09
428.641	41.09
429.003	41.11
429.365	41.12
429.728	41.11
430.09	41.05
430.452	40.99
430.814	40.95
431.177	40.95
431.539	40.95
431.901	40.99
432.263	41.05
432.625	41.06
432.987	41.14
433.349	41.24
433.711	41.36
434.072	41.53
434.434	41.71
434.796	41.89
435.158	42.07
435.519	42.2
435.881	42.28
436.243	42.38
436.604	42.48
436.966	42.55
437.327	42.59
437.689	42.57
438.05	42.52
438.411	42.52
438.773	42.49
439.134	42.46
439.495	42.46
439.856	42.49
440.218	42.52
440.579	42.6
440.94	42.65
441.301	42.74
441.662	42.81
442.023	42.94
442.384	42.98
442.745	43.07
443.105	43.13
443.466	43.18
443.827	43.21
444.188	43.25
444.548	43.25
444.909	43.25
445.269	43.24
445.63	43.26
445.99	43.23
446.351	43.29
446.711	43.29
447.072	43.33
447.432	43.38
447.792	43.43
448.153	43.45
448.513	43.49
448.873	43.5
449.233	43.5
449.593	43.51
449.953	43.54
450.313	43.55
450.673	43.55
451.033	43.51
451.393	43.5
451.753	43.49
452.113	43.98
452.472	43.94
452.832	43.91
453.192	43.86
453.551	43.81
453.911	43.77
454.271	43.73
454.63	43.71
454.989	43.71
455.349	43.72
455.708	43.7
456.068	43.42
456.427	43.44
456.786	43.49
457.145	43.55
457.505	43.63
457.864	43.75
458.223	43.9
458.582	44.07
458.941	44.24
459.3	44.37
459.659	44.46
460.018	44.56
460.376	44.61
460.735	44.63
461.094	44.64
461.453	44.64
461.811	44.6
462.17	44.56
462.529	44.51
462.887	44.4
463.246	44.34
463.604	44.32
463.963	44.29
464.321	44.37
464.679	44.36
465.038	44.37
465.396	44.39
465.754	44.45
466.112	44.48
466.47	44.51
466.828	44.59
467.186	44.65
467.544	44.7
467.902	44.73
468.26	44.63
468.618	44.67
468.976	44.65
469.334	44.63
469.692	44.55
470.049	44.45
470.407	44.31
470.765	44.2
471.122	44.15
471.48	44.13
471.837	44.18
472.195	44.26
472.552	44.32
472.909	44.38
473.267	44.43
473.624	44.51
473.981	44.6
474.338	44.65
474.696	44.73
475.053	44.73
475.41	44.75
475.767	44.73
476.124	44.7
476.481	44.67
476.838	44.68
477.194	44.67
477.551	44.65
477.908	44.65
478.265	44.68
478.621	44.68
478.978	44.71
479.335	44.73
479.691	44.77
480.048	44.77
480.404	44.78
480.761	44.8
481.117	44.83
481.473	44.86
481.83	44.87
482.186	44.86
482.542	44.87
482.898	44.91
483.255	44.94
483.611	44.93
483.967	44.95
484.323	45.01
484.679	45.01
485.035	45.05
485.39	45.06
485.746	45.12
486.102	45.13
486.458	45.15
486.814	45.14
487.169	45.13
487.525	45.16
487.88	45.14
488.236	45.15
488.591	45.18
488.947	45.13
489.302	45.1
489.658	45.05
490.013	45
490.368	44.94
490.723	44.9
491.079	44.89
491.434	44.89
491.789	44.89
492.144	44.87
492.499	44.85
492.854	44.85
493.209	44.89
493.564	44.91
493.919	44.99
494.273	45.03
494.628	45.03
494.983	45.02
495.338	44.99
495.692	44.98
496.047	44.9
496.401	44.84
496.756	44.78
497.11	44.67
497.465	44.59
497.819	44.48
498.173	44.38
498.528	44.34
498.882	44.33
499.236	44.32
499.59	44.32
499.944	44.38
500.298	44.42
500.652	44.43
501.006	44.46
501.36	44.48
501.714	44.48
502.068	44.5
502.422	44.5
502.776	44.5
503.129	44.52
503.483	44.55
503.837	44.55
504.19	44.57
504.544	44.57
504.897	44.54
505.251	44.49
505.604	44.42
505.958	44.36
506.311	44.28
506.664	44.15
507.017	43.97
507.371	43.79
507.724	43.62
508.077	43.45
508.43	43.31
508.783	43.2
509.136	43.14
509.489	43.08
509.842	43.03
510.195	42.93
510.547	42.87
510.9	42.81
511.253	42.73
511.606	42.62
511.958	42.48
512.311	42.32
512.663	42.15
513.016	41.97
513.368	41.83
513.721	41.69
514.073	41.56
514.425	41.44
514.778	41.35
515.13	41.27
515.482	41.18
515.834	41.13
516.186	41.09
516.538	41.09
516.89	41.11
517.242	41.12
517.594	41.12
517.946	41.14
518.298	41.15
518.65	41.11
519.001	41.05
519.353	41.01
519.705	40.91
520.056	40.82
520.408	40.64
520.759	40.5
521.111	40.34
521.462	40.25
521.814	40.15
522.165	40.04
522.516	39.96
522.868	39.89
523.219	39.76
523.57	39.64
523.921	39.51
524.272	39.41
524.623	39.24
524.974	39.13
525.325	38.93
525.676	38.78
526.027	38.63
526.378	38.49
526.728	38.35
527.079	38.26
527.43	38.18
527.78	38.12
528.131	38.04
528.481	37.97
528.832	37.89
529.182	37.84
529.533	37.77
529.883	37.69
530.233	37.61
530.584	37.53
530.934	37.44
531.284	37.31
531.634	37.17
531.984	37.05
532.334	36.92
532.684	36.79
533.034	36.67
533.384	36.5
533.734	36.4
534.084	36.29
534.434	36.19
534.783	36.06
535.133	35.93
535.483	35.84
535.832	35.75
536.182	35.63
536.531	35.54
536.881	35.46
537.23	35.36
537.58	35.22
537.929	35.09
538.278	36.3
538.628	36.15
538.977	36.05
539.326	35.93
539.675	35.79
540.024	35.72
540.373	35.6
540.722	35.46
541.071	35.39
541.42	35.3
541.769	35.21
542.117	33.75
542.466	33.68
542.815	33.59
543.163	33.49
543.512	33.42
543.861	33.33
544.209	33.23
544.558	33.13
544.906	33.01
545.254	32.89
545.603	32.8
545.951	32.72
546.299	32.68
546.647	32.61
546.996	32.55
547.344	32.46
547.692	32.39
548.04	32.31
548.388	32.23
548.736	32.17
549.083	32.09
549.431	31.97
549.779	31.88
550.127	31.75
550.475	31.66
550.822	31.5
551.17	31.38
551.517	31.29
551.865	31.19
552.212	31.13
552.56	31.03
552.907	30.95
553.254	30.89
553.602	30.79
553.949	30.68
554.296	30.54
554.643	30.45
554.99	30.36
555.337	30.2
555.684	30.06
556.031	29.91
556.378	29.8
556.725	29.68
557.072	29.58
557.419	29.5
557.765	29.42
558.112	29.34
558.459	29.23
558.805	29.13
559.152	29.06
559.498	28.99
559.845	28.87
560.191	28.78
560.538	28.72
560.884	28.59
561.23	28.46
561.576	28.32
561.923	28.18
562.269	28.09
562.615	27.98
562.961	27.88
563.307	27.79
563.653	27.76
563.999	27.63
564.344	27.53
564.69	27.52
565.036	27.45
565.382	27.4
565.727	27.36
566.073	27.24
566.419	27.15
566.764	27.06
567.11	26.96
567.455	26.81
567.8	26.74
568.146	26.64
568.491	26.5
568.836	26.39
569.181	26.27
569.527	26.17
569.872	26.13
570.217	26.06
570.562	25.98
570.907	25.94
571.252	25.91
571.597	25.85
571.941	25.77
572.286	25.7
572.631	25.7
572.976	25.63
573.32	25.6
573.665	25.58
574.009	25.55
574.354	25.5
574.698	25.44
575.043	25.43
575.387	25.39
575.731	25.38
576.076	25.36
576.42	25.33
576.764	25.24
577.108	25.21
577.452	25.12
577.796	25.08
578.14	24.98
578.484	24.98
578.828	24.93
579.172	24.9
579.516	24.86
579.86	24.76
580.203	24.73
580.547	24.64
580.891	24.55
581.234	24.55
581.578	24.51
581.921	24.46
582.264	24.44
582.608	24.35
582.951	24.29
583.294	24.24
583.638	24.19
583.981	24.14
584.324	24.13
584.667	24.08
585.01	24.06
585.353	24.03
585.696	23.99
586.039	23.98
586.382	23.95
586.725	23.93
587.067	23.93
587.41	23.93
587.753	23.93
588.095	23.92
588.438	23.87
588.781	23.86
589.123	23.85
589.465	23.83
589.808	23.83
590.15	23.82
590.492	23.78
590.835	23.77
591.177	23.72
591.519	23.68
591.861	23.63
592.203	23.61
592.545	23.58
592.887	23.56
593.229	23.47
593.571	23.43
593.913	23.4
594.254	23.34
594.596	23.27
594.938	23.24
595.279	23.19
595.621	23.13
595.963	23.12
596.304	23.09
596.645	23.06
596.987	23.02
597.328	22.95
597.669	22.93
598.011	22.9
598.352	22.88
598.693	22.88
599.034	22.86
599.375	22.85
599.716	22.84
600.057	22.81
600.398	22.79
600.739	22.77
601.08	22.77
601.42	22.76
601.761	22.75
602.102	22.74
602.442	22.72
602.783	22.69
603.123	22.68
603.464	22.64
603.804	22.57
604.145	22.55
604.485	22.51
604.825	22.48
605.166	22.43
605.506	22.42
605.846	22.4
606.186	22.36
606.526	22.33
606.866	22.3
607.206	22.22
607.546	22.2
607.886	22.11
608.225	22.07
608.565	22.05
608.905	21.96
609.245	21.94
609.584	21.86
609.924	21.79
610.263	21.76
610.603	21.74
610.942	21.72
611.281	21.7
611.621	21.63
611.96	21.59
612.299	21.56
612.638	21.52
612.978	21.48
613.317	21.42
613.656	21.32
613.995	21.3
614.334	21.23
614.672	21.21
615.011	21.16
615.35	21.14
615.689	21.07
616.027	21.07
616.366	21.02
616.705	21.01
617.043	21
617.382	20.99
617.72	20.98
618.059	20.92
618.397	20.84
618.735	20.8
619.073	20.78
619.412	20.75
619.75	20.71
620.088	20.65
620.426	20.59
620.764	20.55
621.102	20.54
621.44	20.51
621.778	20.5
622.115	20.48
622.453	20.46
622.791	20.41
623.129	20.4
623.466	20.33
623.804	20.31
624.141	20.28
624.479	20.25
624.816	20.2
625.153	20.19
625.491	20.17
625.828	20.17
626.165	20.15
626.502	20.1
626.84	20.09
627.177	20.07
627.514	20.02
627.851	19.98
628.188	19.89
628.524	19.83
628.861	19.8
629.198	19.73
629.535	19.69
629.871	19.62
630.208	19.54
630.545	19.5
630.881	19.45
631.218	19.46
631.554	19.41
631.89	19.37
632.227	19.34
632.563	19.27
632.899	19.24
633.235	19.24
633.572	19.16
633.908	19.14
634.244	19.13
634.58	19.05
634.916	18.96
635.251	18.96
635.587	18.98
635.923	18.94
636.259	18.91
636.595	18.84
636.93	18.77
637.266	18.77
637.601	18.72
637.937	18.62
638.272	18.64
638.608	18.58
638.943	18.5
639.278	18.44
639.613	18.42
639.949	18.4
640.284	18.37
640.619	18.35
640.954	18.27
641.289	18.23
641.624	18.21
641.959	18.1
642.294	18.01
642.628	17.97
642.963	17.85
643.298	17.7
643.632	17.72
643.967	17.66
644.302	17.51
644.636	17.49
644.971	17.41
645.305	17.31
645.639	17.31
645.974	17.28
646.308	17.15
646.642	17.13
646.976	17.2
647.31	17.05
647.644	16.99
647.978	16.98
648.312	16.91
648.646	16.93
648.98	16.95
649.314	16.88
649.647	16.89
649.981	16.88
650.315	16.8
650.648	16.71
650.982	16.66
651.315	16.65
651.649	16.62
651.982	16.6
652.316	16.51
652.649	16.44
652.982	16.43
653.315	16.42
653.648	16.42
653.982	16.43
654.315	16.36
654.648	16.28
654.981	16.19
655.313	16.18
655.646	16.16
655.979	16.14
656.312	16.11
656.644	16.12
656.977	16.07
657.31	16.03
657.642	15.98
657.975	15.97
658.307	15.96
658.64	16
658.972	16
659.304	15.94
659.636	15.91
659.969	15.89
660.301	15.81
660.633	15.78
660.965	15.77
661.297	15.74
661.629	15.75
661.961	15.76
662.292	15.68
662.624	15.58
662.956	15.59
663.288	15.62
663.619	15.55
663.951	15.54
664.282	15.5
664.614	15.41
664.945	15.36
665.276	15.28
665.608	15.19
665.939	15.16
666.27	15.18
666.601	15.02
666.933	14.97
667.264	14.99
667.595	14.9
667.926	14.89
668.256	14.85
668.587	14.86
668.918	14.85
669.249	14.87
669.58	14.87
669.91	14.84
670.241	14.91
670.571	14.87
670.902	14.86
671.232	14.85
671.563	14.76
671.893	14.77
672.223	14.73
672.554	14.72
672.884	14.76
673.214	14.72
673.544	14.77
673.874	14.71
674.204	14.63
674.534	14.6
674.864	14.59
675.194	14.6
675.524	14.65
675.853	14.66
676.183	14.58
676.513	14.56
676.842	14.53
677.172	14.49
677.501	14.52
677.831	14.54
678.16	14.53
678.489	14.56
678.819	14.56
679.148	14.46
679.477	14.45
679.806	14.45
680.135	14.29
680.464	14.2
680.793	14.08
681.122	14
681.451	13.86
681.78	13.85
682.108	13.77
682.437	13.7
682.766	13.72
683.094	13.64
683.423	13.56
683.751	13.58
684.08	13.55
684.408	13.53
684.737	13.59
685.065	13.6
685.393	13.54
685.721	13.52
686.049	13.54
686.377	13.56
686.705	13.47
687.033	13.51
687.361	13.55
687.689	13.64
688.017	13.72
688.345	13.65
688.673	13.69
689.0	13.68
689.328	13.66
689.655	13.66
689.983	13.62
690.31	13.67
690.638	13.59
690.965	13.51
691.292	13.36
691.62	13.29
691.947	13.24
692.274	13.16
692.601	13.13
692.928	13.06
693.255	12.97
693.582	12.91
693.909	12.9
694.236	13.06
694.562	13.09
694.889	13.22
695.216	13.15
695.542	13.17
695.869	13.17
696.196	13.15
696.522	13.15
696.848	13.14
697.175	13.09
697.501	13.12
697.827	13.01
698.154	13
698.48	12.84
698.806	12.88
699.132	12.81
699.458	12.86
699.784	12.82
700.11	12.84
700.435	12.86
700.761	12.87
701.087	12.68
701.413	12.65
701.738	12.56
702.064	12.56
702.389	12.46
702.715	12.43
703.04	12.38
703.366	12.32
703.691	12.34
704.016	12.16
704.341	12.18
704.666	12.3
704.992	12.21
705.317	12.25
705.642	12.21
705.967	12.19
706.291	12.36
706.616	12.48
706.941	12.59
707.266	12.64
707.59	12.84
707.915	12.82
708.24	12.79
708.564	12.87
708.889	12.76
709.213	12.86
709.537	12.86
709.862	12.6
710.186	12.42
710.51	12.4
710.834	12.33
711.158	12.21
711.482	12.14
711.806	12.12
712.13	12.13
712.454	12.09
712.778	12.04
713.102	12.05
713.426	12.14
713.749	12.17
714.073	12.14
714.396	11.95
714.72	12.01
715.043	11.98
715.367	11.99
715.69	12.01
716.013	12.18
716.337	12.13
716.66	12.17
716.983	12.24
717.306	12.17
717.629	12
717.952	12.1
718.275	12.12
718.598	12.07
718.921	12.12
719.243	12.13
719.566	12.14
719.889	12.27
720.211	12.16
720.534	12.12
720.856	12.02
721.179	12.13
721.501	12.05
721.823	11.79
722.146	11.85
722.468	11.74
722.79	11.56
723.112	11.31
723.434	11.27
723.756	11.32
724.078	11.31
724.4	11.26
724.722	11.33
725.044	11.32
725.366	11.4
725.687	11.39
726.009	11.23
726.33	11.26
726.652	11.37
726.973	11.19
727.295	11.2
727.616	11.03
727.938	11.29
728.259	11.26
728.58	11.32
728.901	11.4
729.222	11.35
729.543	11.46
729.864	11.48
730.185	11.36
730.506	11.34
730.827	11.32
731.148	11.45
731.468	11.25
731.789	11.22
732.11	11.17
732.43	11.08
732.751	11.23
733.071	11.17
733.392	11.19
733.712	11.29
734.032	11.5
734.352	11.49
734.673	11.32
734.993	11.35
735.313	11.32
735.633	11.72
735.953	11.87
736.273	11.82
736.593	11.93
736.912	11.91
737.232	12.05
737.552	11.86
737.871	11.88
738.191	12.02
738.51	12.26
738.83	12.42
739.149	12.15
739.469	12.16
739.788	12.07
740.107	11.95
740.426	11.92
740.746	11.66
741.065	11.62
741.384	11.65
741.703	11.43
742.022	11.29
742.341	11.22
742.659	10.99
742.978	10.86
743.297	11.1
743.615	11.24
743.934	11.42
744.253	11.39
744.571	11.72
744.89	11.74
745.208	11.93
745.526	11.89
745.845	11.7
746.163	11.8
746.481	12.12
746.799	11.89
747.117	11.9
747.435	11.86
747.753	11.93
748.071	11.69
748.389	11.54
748.706	11.45
749.024	11.49
749.342	11.65
749.659	11.88
749.977	11.52
750.295	11.63
750.612	11.48
750.929	11.27
751.247	11.56
751.564	11.35
751.881	11.33
752.198	11.54
752.516	11.34
752.833	11.16
753.15	10.59
753.467	10.58
753.783	10.3
754.1	10.52
754.417	10.63
754.734	10.38
755.05	10.72
755.367	10.68
755.684	10.47
756.0	10.45
756.317	10.71
756.633	10.96
756.949	11.11
757.266	11.18
757.582	11.01
757.898	10.64
758.214	10.41
758.53	10.27
758.846	10.22
759.162	9.99
759.478	9.95
759.794	9.76
760.11	9.8
760.426	9.4
760.741	9.61
761.057	9.37
761.372	9.53
761.688	9.86
762.003	9.87
762.319	9.98
762.634	10.3
762.949	10.28
763.265	10.4
763.58	10.3
763.895	10.55
764.21	10.32
764.525	10.31
764.84	10.39
765.155	10.25
765.47	10.31
765.785	10.23
766.099	10.22
766.414	10.32
766.729	10.06
767.043	10.4
767.358	10.27
767.672	10.39
767.987	10.57
768.301	10.74
768.615	11.05
768.929	11.13
769.244	11.26
769.558	11.61
769.872	11.57
770.186	11.54
770.5	11.16
770.814	11.08
771.127	11.17
771.441	10.97
771.755	10.87
772.069	10.19
772.382	9.72
772.696	9.65
773.009	9.07
773.323	9.26
773.636	9.38
773.95	9.29
774.263	9.43
774.576	9.05
774.889	9.34
775.202	9.14
775.515	9.7
775.828	9.76
776.141	9.85
776.454	9.92
776.767	9.65
777.08	9.6
777.393	9.72
777.705	9.58
778.018	9.63
778.33	9.46
778.643	9.67
778.955	9.12
779.268	9.27
779.58	9.39
779.892	9.5
780.205	9.35
780.517	9.53
780.829	9.87
781.141	10.44
781.453	10.5
781.765	10.73
782.077	10.3
782.388	10.64
782.7	10.71
783.012	10.77
783.324	10.72
783.635	10.79
783.947	11.05
784.258	10.37
784.57	9.64
784.881	9.92
785.192	9.27
785.504	9.75
785.815	9.62
786.126	9.71
786.437	10.08
786.748	9.9
787.059	9.71
787.37	9.23
787.681	9.4
787.992	9.75
788.302	9.65
788.613	10.2
788.924	10.27
789.234	10.76
789.545	10.87
789.855	10.26
790.166	9.99
790.476	10.35
790.786	10.65
791.096	11.09
791.407	11.41
791.717	11.26
792.027	11.02
792.337	10.2
792.647	9.61
792.957	9.59
793.266	9.49
793.576	9.64
793.886	9.35
794.196	9.33
794.505	13.56
794.815	13.4
795.124	13.63
795.434	14.1
795.743	14.1
796.052	14.45
796.362	14.27
796.671	14.21
796.98	14.56
797.289	14.39
797.598	13.75
797.907	9.15
798.216	9.29
798.525	9.57
798.834	9.36
799.142	10.21
799.451	10.22
799.76	10.18
800.068	10.08
800.377	10.13
800.685	11.23
800.994	12.11
801.302	12.71
801.61	12.56
801.918	11.77
802.227	11.96
802.535	11.8
802.843	11.67
803.151	11.65
803.459	11.89
803.767	11.98
804.074	11.33
804.382	11.11
804.69	12.77
804.998	12.43
805.305	12.79
805.613	12.54
805.92	12.57
806.228	12.39
806.535	11.54
806.842	11.27
807.15	10.72
807.457	10.29
807.764	10.09
808.071	8.23
808.378	8.71
808.685	8.76
808.992	8.66
809.299	8.59
809.605	8.8
809.912	10.5
810.219	11.14
810.525	11.84
810.832	12.09
811.138	12.35
811.445	11.97
811.751	11.21
812.058	11.32
812.364	11.7
812.67	11.39
812.976	10.95
813.282	9.41
813.588	8.89
813.894	8.72
814.2	8.86
814.506	8.57
814.812	8.24
815.118	8.74
815.423	8.72
815.729	9.29
816.035	9.87
816.34	10.64
816.646	11.66
816.951	12.22
817.256	12.22
817.562	12.34
817.867	12.61
818.172	12.55
818.477	12.87
818.782	12.56
819.087	12.13
819.392	11.68
819.697	10.78
820.002	10.11
820.306	9.53
820.611	9.68
820.916	9.85
821.22	9.21
821.525	9.12
821.829	9.07
822.134	9.01
822.438	8.59
822.742	8.58
823.047	8.7
823.351	8.81
823.655	8.82
823.959	8.51
824.263	8.39
824.567	8.56
824.871	8.56
825.174	8.51
825.478	10.34
825.782	10.69
826.086	10.9
826.389	11.15
826.693	11.31
826.996	11.47
827.3	11.83
827.603	12.08
827.906	12.08
828.209	12.58
828.513	12.88
828.816	10.66
829.119	10.48
829.422	10.28
829.725	10.13
830.028	10.13
830.33	9.87
830.633	10
830.936	9.86
831.238	9.89
831.541	9.49
831.844	9.03
832.146	9.26
832.448	9.29
832.751	9.25
833.053	9.42
833.355	9.62
833.657	9.46
833.96	9.14
834.262	9.31
834.564	9.28
834.865	8.8
835.167	10.17
835.469	10.09
835.771	10.1
836.073	10.12
836.374	9.94
836.676	9.29
836.977	9.94
837.279	10.27
837.58	10.65
837.882	10.83
838.183	11.7
838.484	9.77
838.785	9.6
839.086	9.71
839.387	10.05
839.688	10.17
839.989	10.67
840.29	10.6
840.591	10.76
840.892	9.53
841.192	9.56
841.493	9.2
841.794	10.05
842.094	9.9
842.394	9.68
842.695	11.41
842.995	10.64
843.295	10.72
843.596	10.67
843.896	9.11
844.196	9.86
844.496	10.28
844.796	9.89
845.096	10.48
845.396	10.04
845.695	10.71
845.995	9.87
846.295	10.92
846.594	11.12
846.894	12.01
847.194	11.89
847.493	12.54
847.792	12.42
848.092	12.41
848.391	10.06
848.69	12.08
848.989	12.52
849.288	10.57
849.587	10.47
849.886	10.65
850.185	11.34
850.484	14.83
850.783	14.74
851.081	13.74
851.38	13.93
851.679	17.08
851.977	17.28
852.276	17.44
852.574	18.55
852.872	19.09
853.171	16.91
853.469	15.07
853.767	12.66
854.065	13.69
854.363	13.75
854.661	15.5
854.959	13.41
855.257	10.44
855.555	9.46
855.853	10.73
856.15	11.41
856.448	12.77
856.746	12.97
857.043	11.09
857.341	12.59
857.638	18.24
857.935	15.61
858.233	16.17
858.53	17.1
858.827	17.69
859.124	15.35
859.421	13.27
859.718	13.57
860.015	14.39
860.312	15.96
860.609	11.76
860.905	7.54
861.202	7.21
861.499	7.45
861.795	8.19
862.092	4.9
862.388	3.62
862.684	6.42
862.981	7.17
863.277	3.15
863.573	4.53
863.869	6.75
864.165	5.11
864.461	6.22
864.757	4.07
865.053	5.25
865.349	6.83
865.645	9.24
865.94	8.03
866.236	5.5
866.532	10.43
866.827	9.79
867.123	8.95
867.418	11.52
867.713	9.88
868.009	11.48
868.304	10.18
868.599	11.16
868.894	9.99
869.189	8.07
869.484	11.86
869.779	9.2
870.074	7.88
870.369	8.13
870.663	5.2
870.958	5.83
871.252	3.45
871.547	4.96
871.842	3.95
872.136	3.95
872.43	1.85
872.725	1.85
873.019	0.58
873.313	2.24
873.607	0.84
873.901	2.61
874.195	3.82
874.489	7.55
874.783	6.25
875.077	5.06
875.37	12.37
875.664	13.52
875.958	14.17
876.251	14.56
876.545	13.62
876.838	14.04
877.132	16.52
877.425	16.28
877.718	15.76
878.011	15.81
878.305	18.29
878.598	13.81
878.891	12.22
879.184	11.6
879.476	12.11
879.769	10.16
880.062	10.76
880.355	4.92
880.647	5.25
880.94	2.23
881.232	0.62
881.525	0.62
881.817	0.62
882.11	1.4
882.402	1.37
882.694	1.37
882.986	1.66
883.278	2.69
883.57	4.43
883.862	5.27
884.154	6.21
884.446	7.29
884.738	8.04
885.03	8.37
885.321	8.48
885.613	8.52
885.904	9.32
886.196	9.01
886.487	8.81
886.779	8.35
887.07	8.47
887.361	8.26
887.652	8.73
887.943	8.35
888.234	9.08
888.525	8.01
888.816	8.52
889.107	8.84
889.398	10.08
889.689	10.01
889.979	10.01
890.27	8.49
890.56	9.55
890.851	7.91
891.141	8.13
891.432	6.11
891.722	8.5
