Data from groin1_Reflection__0__14-53-21-062.txt Node

Date: Thu Aug 04 14:53:21 AEST 2022
User: kathy
Spectrometer: JAZA2503
Trigger mode: 0
Integration Time (sec): 2.439700E-1
Scans to average: 10
Electric dark correction enabled: true
Nonlinearity correction enabled: true
Boxcar width: 5
XAxis mode: Wavelengths
Number of Pixels in Spectrum: 2048
>>>>>Begin Spectral Data<<<<<
189.467	98.32
189.852	61.89
190.237	46.87
190.622	71.4
191.007	74.14
191.392	50.57
191.777	48.18
192.162	63.53
192.546	153.5
192.931	-146.79
193.316	138.05
193.701	323.69
194.086	96.93
194.47	63.23
194.855	-2501.57
195.24	-97.06
195.624	163.84
196.009	124.14
196.393	159.34
196.778	478.12
197.163	187.84
197.547	94.92
197.931	66.78
198.316	65.15
198.7	58.18
199.085	52.04
199.469	54
199.853	50.4
200.237	39.5
200.622	32.31
201.006	28.82
201.39	22.21
201.774	19.74
202.158	22.17
202.542	17.69
202.926	15.08
203.31	3.89
203.694	-2.35
204.078	-3.49
204.462	5.75
204.846	19.8
205.23	17.21
205.614	16.77
205.998	23.72
206.381	26.05
206.765	29.25
207.149	30.58
207.532	31.37
207.916	30.93
208.3	30.17
208.683	30.23
209.067	23.93
209.45	25.58
209.834	27.36
210.217	26.99
210.601	23.29
210.984	30.2
211.367	31.69
211.751	29.18
212.134	27.09
212.517	31.35
212.901	30.94
213.284	33.35
213.667	32.31
214.05	30.5
214.433	25.69
214.816	27.2
215.199	22.36
215.582	20.04
215.965	21.41
216.348	25.37
216.731	17.9
217.114	11.9
217.497	9.92
217.88	8.96
218.262	6.19
218.645	7.35
219.028	9.11
219.411	7.57
219.793	10.11
220.176	8.33
220.559	7.74
220.941	10.98
221.324	17.63
221.706	19.01
222.089	20.57
222.471	21.11
222.853	21.49
223.236	19.07
223.618	16.46
224	15.85
224.383	14.94
224.765	12.01
225.147	10.52
225.529	9.88
225.912	7.28
226.294	4.34
226.676	3.51
227.058	1.71
227.44	2.51
227.822	2.92
228.204	2.86
228.586	2.63
228.968	2.98
229.349	3.12
229.731	2.69
230.113	2.74
230.495	2.83
230.877	2.86
231.258	3.39
231.64	3.17
232.022	2.75
232.403	2.47
232.785	2.64
233.166	2.71
233.548	2.39
233.929	2.6
234.311	3.19
234.692	3.17
235.073	3.24
235.455	3.26
235.836	3.29
236.217	3.68
236.599	3.5
236.98	3.59
237.361	3.43
237.742	3.49
238.123	3.29
238.504	2.71
238.885	2.7
239.266	2.71
239.647	2.68
240.028	2.61
240.409	2.33
240.79	2.57
241.171	2.44
241.552	2.44
241.933	2.28
242.313	2.28
242.694	2.5
243.075	2.55
243.456	2.29
243.836	2.13
244.217	2.22
244.597	2.32
244.978	2.24
245.358	2.39
245.739	2.22
246.119	2.37
246.5	2.3
246.88	2.14
247.26	2.19
247.641	2.17
248.021	2.16
248.401	2.07
248.781	2.09
249.162	2.14
249.542	2.03
249.922	2.08
250.302	2.07
250.682	2.04
251.062	2.03
251.442	1.85
251.822	1.86
252.202	1.95
252.582	1.91
252.961	1.94
253.341	1.86
253.721	2.01
254.101	2.14
254.48	2.06
254.86	2.1
255.24	2.23
255.619	2.3
255.999	2.43
256.378	2.26
256.758	2.23
257.137	2.17
257.517	2.14
257.896	2.07
258.276	1.95
258.655	1.66
259.034	1.45
259.414	1.27
259.793	1.24
260.172	1.12
260.551	1.13
260.93	1.02
261.309	0.95
261.688	0.83
262.068	0.69
262.447	0.66
262.825	0.77
263.204	0.74
263.583	0.74
263.962	0.68
264.341	0.76
264.72	0.8
265.099	0.96
265.477	1.03
265.856	1.12
266.235	1.21
266.613	1.13
266.992	1.03
267.371	1.19
267.749	1.25
268.128	1.24
268.506	1.27
268.884	1.34
269.263	1.3
269.641	1.26
270.02	1.33
270.398	1.25
270.776	1.29
271.154	1.42
271.533	1.42
271.911	1.41
272.289	1.49
272.667	1.49
273.045	1.42
273.423	1.41
273.801	1.41
274.179	1.35
274.557	1.48
274.935	1.44
275.313	1.4
275.69	1.35
276.068	1.35
276.446	1.27
276.824	1.18
277.201	1.14
277.579	1.21
277.957	1.14
278.334	1.14
278.712	1.09
279.089	1.08
279.467	1.02
279.844	1.05
280.222	1.04
280.599	1.04
280.976	1.1
281.354	1.07
281.731	0.98
282.108	0.94
282.485	0.92
282.863	0.88
283.24	0.94
283.617	0.96
283.994	0.93
284.371	0.91
284.748	0.95
285.125	0.91
285.502	0.97
285.879	0.99
286.256	1.08
286.633	1.16
287.009	1.24
287.386	1.26
287.763	1.31
288.139	1.36
288.516	1.47
288.893	1.51
289.269	1.55
289.646	1.57
290.022	1.63
290.399	1.69
290.775	1.72
291.152	1.76
291.528	1.78
291.904	1.76
292.281	1.8
292.657	1.81
293.033	1.84
293.41	1.91
293.786	1.98
294.162	2.02
294.538	2.06
294.914	2.12
295.29	2.19
295.666	2.28
296.042	2.38
296.418	2.46
296.794	2.51
297.17	2.62
297.546	2.67
297.921	2.73
298.297	2.82
298.673	2.87
299.048	2.92
299.424	2.99
299.8	3.07
300.175	3.14
300.551	3.21
300.926	3.31
301.302	3.38
301.677	3.45
302.053	3.55
302.428	3.64
302.803	3.76
303.179	3.88
303.554	3.94
303.929	3.99
304.304	4.12
304.68	4.2
305.055	4.25
305.43	4.28
305.805	4.38
306.18	4.41
306.555	4.47
306.93	4.52
307.305	4.53
307.679	4.57
308.054	4.59
308.429	4.57
308.804	4.59
309.179	4.62
309.553	4.67
309.928	4.67
310.303	4.71
310.677	4.74
311.052	4.75
311.426	4.78
311.801	4.84
312.175	4.87
312.55	4.92
312.924	4.95
313.298	5
313.673	5.05
314.047	5.07
314.421	5.1
314.795	5.1
315.17	5.14
315.544	5.19
315.918	5.23
316.292	5.33
316.666	5.41
317.04	5.53
317.414	5.59
317.788	5.68
318.162	5.82
318.535	5.98
318.909	6.11
319.283	6.3
319.657	6.41
320.03	6.59
320.404	6.73
320.778	7.12
321.151	7.63
321.525	8.25
321.898	8.94
322.272	9.65
322.645	10.41
323.019	11.27
323.392	12.23
323.765	13.26
324.139	14.37
324.512	15.61
324.885	16.87
325.258	18
325.632	18.93
326.005	19.85
326.378	20.6
326.751	21.15
327.124	21.57
327.497	21.94
327.87	22.18
328.243	22.39
328.616	22.51
328.988	22.59
329.361	22.65
329.734	22.63
330.107	22.7
330.479	22.55
330.852	22.37
331.225	22.3
331.597	22.1
331.97	21.85
332.342	21.67
332.715	21.49
333.087	21.32
333.46	21.19
333.832	21.09
334.204	21.04
334.577	21.01
334.949	20.94
335.321	20.85
335.693	20.74
336.065	20.59
336.438	20.37
336.81	20.19
337.182	20.03
337.554	19.86
337.926	19.75
338.298	19.64
338.669	19.51
339.041	19.4
339.413	19.33
339.785	19.31
340.157	19.18
340.528	19.17
340.9	19.09
341.272	19.04
341.643	19.02
342.015	19.03
342.386	19.09
342.758	19.17
343.129	19.25
343.501	19.29
343.872	19.29
344.243	19.34
344.615	19.38
344.986	19.36
345.357	19.4
345.728	19.42
346.099	19.4
346.471	19.42
346.842	19.46
347.213	19.46
347.584	19.48
347.955	19.47
348.326	19.45
348.697	19.41
349.067	19.42
349.438	19.43
349.809	19.51
350.18	19.64
350.55	19.68
350.921	19.74
351.292	19.81
351.662	19.89
352.033	19.93
352.403	19.99
352.774	20.01
353.144	20.04
353.515	20.07
353.885	20.08
354.255	20.08
354.626	20.08
354.996	20.07
355.366	20.07
355.736	20.08
356.107	20.1
356.477	20.11
356.847	20.15
357.217	20.18
357.587	20.21
357.957	20.21
358.327	20.25
358.697	20.28
359.066	20.34
359.436	20.38
359.806	20.41
360.176	20.46
360.546	20.51
360.915	20.53
361.285	20.54
361.654	20.56
362.024	20.54
362.393	20.52
362.763	20.53
363.132	20.53
363.502	20.53
363.871	20.56
364.24	20.57
364.61	20.55
364.979	20.58
365.348	20.6
365.717	20.63
366.087	20.67
366.456	20.7
366.825	20.72
367.194	20.71
367.563	20.74
367.932	20.73
368.301	20.72
368.669	20.74
369.038	20.7
369.407	20.71
369.776	20.7
370.145	20.72
370.513	20.76
370.882	20.77
371.25	20.82
371.619	20.82
371.988	20.81
372.356	20.83
372.724	20.81
373.093	20.85
373.461	20.84
373.83	20.86
374.198	20.85
374.566	20.82
374.934	20.82
375.303	20.81
375.671	20.82
376.039	20.83
376.407	20.83
376.775	20.83
377.143	20.84
377.511	20.87
377.879	20.87
378.247	20.85
378.615	20.89
378.982	20.88
379.35	20.88
379.718	20.9
380.086	20.89
380.453	20.9
380.821	20.93
381.188	20.93
381.556	20.94
381.923	20.95
382.291	20.98
382.658	20.99
383.026	21.03
383.393	21.04
383.76	21.04
384.128	21.08
384.495	21.11
384.862	21.13
385.229	21.15
385.596	21.15
385.963	21.14
386.33	21.19
386.697	21.21
387.064	21.2
387.431	21.21
387.798	21.2
388.165	21.2
388.532	21.22
388.899	21.21
389.265	21.21
389.632	21.23
389.999	21.26
390.365	21.25
390.732	21.22
391.098	21.23
391.465	21.25
391.831	21.26
392.198	21.26
392.564	21.26
392.93	21.27
393.297	21.28
393.663	21.29
394.029	21.29
394.395	21.32
394.762	21.36
395.128	21.36
395.494	21.39
395.86	21.44
396.226	21.49
396.592	21.51
396.958	21.55
397.323	21.58
397.689	21.6
398.055	21.66
398.421	21.67
398.787	21.7
399.152	21.76
399.518	21.78
399.883	21.79
400.249	21.82
400.615	21.83
400.98	21.87
401.345	21.88
401.711	21.93
402.076	21.92
402.442	21.97
402.807	21.99
403.172	22
403.537	22
403.902	22.03
404.268	22.06
404.633	22.1
404.998	22.1
405.363	22.12
405.728	22.17
406.093	22.23
406.457	22.24
406.822	22.27
407.187	22.32
407.552	22.38
407.917	22.41
408.281	22.43
408.646	22.46
409.011	22.53
409.375	22.6
409.74	22.61
410.104	22.62
410.469	22.63
410.833	22.68
411.197	22.69
411.562	22.72
411.926	22.76
412.29	22.8
412.655	22.83
413.019	22.83
413.383	22.85
413.747	22.9
414.111	22.93
414.475	22.99
414.839	23.03
415.203	23.1
415.567	23.11
415.931	23.16
416.295	23.2
416.658	23.24
417.022	23.26
417.386	23.28
417.749	23.3
418.113	23.36
418.477	23.38
418.84	23.39
419.204	23.41
419.567	23.45
419.931	23.49
420.294	23.52
420.657	23.57
421.021	23.61
421.384	23.65
421.747	23.68
422.11	23.69
422.473	23.73
422.836	23.78
423.199	23.81
423.562	23.85
423.925	23.87
424.288	23.87
424.651	23.86
425.014	23.9
425.377	23.94
425.74	23.99
426.102	24.03
426.465	24.07
426.828	24.08
427.19	24.13
427.553	24.17
427.916	24.18
428.278	24.22
428.641	24.28
429.003	24.32
429.365	24.33
429.728	24.38
430.09	24.42
430.452	24.45
430.814	24.46
431.177	24.49
431.539	24.5
431.901	24.53
432.263	24.59
432.625	24.63
432.987	24.65
433.349	24.71
433.711	24.73
434.072	24.79
434.434	24.81
434.796	24.86
435.158	24.9
435.519	24.96
435.881	25
436.243	25.02
436.604	25.07
436.966	25.13
437.327	25.16
437.689	25.21
438.05	25.2
438.411	25.24
438.773	25.31
439.134	25.36
439.495	25.42
439.856	25.46
440.218	25.51
440.579	25.53
440.94	25.58
441.301	25.6
441.662	25.63
442.023	25.71
442.384	25.75
442.745	25.75
443.105	25.77
443.466	25.81
443.827	25.81
444.188	25.82
444.548	25.87
444.909	25.9
445.269	25.92
445.63	25.94
445.99	25.96
446.351	26.01
446.711	26.06
447.072	26.09
447.432	26.12
447.792	26.15
448.153	26.19
448.513	26.2
448.873	26.19
449.233	26.21
449.593	26.26
449.953	26.28
450.313	26.3
450.673	26.32
451.033	26.33
451.393	26.37
451.753	26.43
452.113	26.54
452.472	26.54
452.832	26.56
453.192	26.61
453.551	26.63
453.911	26.65
454.271	26.67
454.63	26.69
454.989	26.73
455.349	26.75
455.708	26.77
456.068	26.74
456.427	26.76
456.786	26.79
457.145	26.82
457.505	26.86
457.864	26.91
458.223	26.94
458.582	26.97
458.941	27.02
459.3	27.05
459.659	27.07
460.018	27.1
460.376	27.16
460.735	27.18
461.094	27.19
461.453	27.21
461.811	27.21
462.17	27.23
462.529	27.25
462.887	27.25
463.246	27.27
463.604	27.28
463.963	27.26
464.321	27.27
464.679	27.29
465.038	27.28
465.396	27.3
465.754	27.32
466.112	27.31
466.47	27.34
466.828	27.34
467.186	27.34
467.544	27.35
467.902	27.39
468.26	27.36
468.618	27.36
468.976	27.4
469.334	27.39
469.692	27.37
470.049	27.4
470.407	27.4
470.765	27.42
471.122	27.42
471.48	27.46
471.837	27.47
472.195	27.53
472.552	27.56
472.909	27.57
473.267	27.59
473.624	27.61
473.981	27.62
474.338	27.62
474.696	27.63
475.053	27.64
475.41	27.61
475.767	27.62
476.124	27.61
476.481	27.61
476.838	27.59
477.194	27.57
477.551	27.58
477.908	27.57
478.265	27.56
478.621	27.55
478.978	27.56
479.335	27.57
479.691	27.58
480.048	27.56
480.404	27.54
480.761	27.53
481.117	27.53
481.473	27.5
481.83	27.52
482.186	27.5
482.542	27.5
482.898	27.47
483.255	27.45
483.611	27.44
483.967	27.42
484.323	27.43
484.679	27.43
485.035	27.42
485.39	27.42
485.746	27.41
486.102	27.41
486.458	27.39
486.814	27.41
487.169	27.42
487.525	27.41
487.88	27.39
488.236	27.34
488.591	27.3
488.947	27.3
489.302	27.29
489.658	27.24
490.013	27.21
490.368	27.18
490.723	27.14
491.079	27.08
491.434	27.04
491.789	27.02
492.144	27.01
492.499	27
492.854	26.97
493.209	26.95
493.564	26.93
493.919	26.91
494.273	26.89
494.628	26.84
494.983	26.85
495.338	26.82
495.692	26.78
496.047	26.76
496.401	26.7
496.756	26.65
497.11	26.59
497.465	26.55
497.819	26.5
498.173	26.45
498.528	26.44
498.882	26.41
499.236	26.41
499.59	26.39
499.944	26.39
500.298	26.4
500.652	26.39
501.006	26.38
501.36	26.39
501.714	26.36
502.068	26.34
502.422	26.32
502.776	26.31
503.129	26.28
503.483	26.25
503.837	26.2
504.19	26.16
504.544	26.13
504.897	26.08
505.251	26
505.604	25.98
505.958	25.95
506.311	25.88
506.664	25.82
507.017	25.74
507.371	25.68
507.724	25.59
508.077	25.51
508.43	25.44
508.783	25.4
509.136	25.37
509.489	25.29
509.842	25.23
510.195	25.19
510.547	25.12
510.9	25.07
511.253	24.99
511.606	24.93
511.958	24.88
512.311	24.8
512.663	24.7
513.016	24.63
513.368	24.58
513.721	24.53
514.073	24.47
514.425	24.43
514.778	24.38
515.13	24.35
515.482	24.29
515.834	24.26
516.186	24.23
516.538	24.19
516.89	24.14
517.242	24.09
517.594	24.04
517.946	24
518.298	23.94
518.65	23.89
519.001	23.82
519.353	23.78
519.705	23.69
520.056	23.63
520.408	23.57
520.759	23.51
521.111	23.47
521.462	23.41
521.814	23.32
522.165	23.24
522.516	23.17
522.868	23.16
523.219	23.07
523.57	23.03
523.921	22.94
524.272	22.86
524.623	22.79
524.974	22.7
525.325	22.65
525.676	22.61
526.027	22.55
526.378	22.47
526.728	22.36
527.079	22.3
527.43	22.23
527.78	22.17
528.131	22.1
528.481	22.03
528.832	21.95
529.182	21.82
529.533	21.75
529.883	21.69
530.233	21.62
530.584	21.55
530.934	21.44
531.284	21.36
531.634	21.29
531.984	21.23
532.334	21.14
532.684	21.06
533.034	21
533.384	20.93
533.734	20.86
534.084	20.78
534.434	20.72
534.783	20.68
535.133	20.61
535.483	20.54
535.832	20.46
536.182	20.38
536.531	20.3
536.881	20.21
537.23	20.14
537.58	20.07
537.929	20.02
538.278	20.36
538.628	20.29
538.977	20.21
539.326	20.15
539.675	20.07
540.024	20.01
540.373	19.95
540.722	19.89
541.071	19.82
541.42	19.75
541.769	19.66
542.117	19.18
542.466	19.11
542.815	19.05
543.163	18.97
543.512	18.91
543.861	18.83
544.209	18.78
544.558	18.71
544.906	18.66
545.254	18.58
545.603	18.51
545.951	18.43
546.299	18.35
546.647	18.29
546.996	18.24
547.344	18.15
547.692	18.08
548.04	18.02
548.388	17.95
548.736	17.86
549.083	17.79
549.431	17.73
549.779	17.66
550.127	17.6
550.475	17.52
550.822	17.42
551.17	17.38
551.517	17.34
551.865	17.26
552.212	17.21
552.56	17.14
552.907	17.11
553.254	17.03
553.602	16.97
553.949	16.89
554.296	16.82
554.643	16.74
554.99	16.67
555.337	16.59
555.684	16.53
556.031	16.4
556.378	16.33
556.725	16.2
557.072	16.13
557.419	16.06
557.765	15.98
558.112	15.89
558.459	15.85
558.805	15.78
559.152	15.68
559.498	15.61
559.845	15.55
560.191	15.48
560.538	15.45
560.884	15.39
561.23	15.33
561.576	15.26
561.923	15.23
562.269	15.18
562.615	15.11
562.961	15.02
563.307	14.98
563.653	14.92
563.999	14.86
564.344	14.81
564.69	14.73
565.036	14.67
565.382	14.63
565.727	14.53
566.073	14.46
566.419	14.42
566.764	14.41
567.11	14.35
567.455	14.3
567.8	14.26
568.146	14.18
568.491	14.15
568.836	14.07
569.181	14
569.527	13.95
569.872	13.88
570.217	13.82
570.562	13.76
570.907	13.69
571.252	13.64
571.597	13.57
571.941	13.54
572.286	13.45
572.631	13.44
572.976	13.42
573.32	13.41
573.665	13.39
574.009	13.38
574.354	13.35
574.698	13.34
575.043	13.32
575.387	13.25
575.731	13.26
576.076	13.19
576.42	13.19
576.764	13.17
577.108	13.14
577.452	13.13
577.796	13.08
578.14	13.04
578.484	13
578.828	12.99
579.172	12.92
579.516	12.91
579.86	12.91
580.203	12.88
580.547	12.87
580.891	12.83
581.234	12.8
581.578	12.77
581.921	12.73
582.264	12.71
582.608	12.66
582.951	12.63
583.294	12.61
583.638	12.61
583.981	12.61
584.324	12.6
584.667	12.56
585.01	12.53
585.353	12.51
585.696	12.5
586.039	12.48
586.382	12.46
586.725	12.45
587.067	12.41
587.41	12.37
587.753	12.32
588.095	12.31
588.438	12.31
588.781	12.3
589.123	12.26
589.465	12.25
589.808	12.25
590.15	12.24
590.492	12.22
590.835	12.21
591.177	12.18
591.519	12.13
591.861	12.14
592.203	12.1
592.545	12.09
592.887	12.08
593.229	12.07
593.571	12.05
593.913	12.02
594.254	12.01
594.596	12.01
594.938	12
595.279	12
595.621	11.91
595.963	11.88
596.304	11.84
596.645	11.82
596.987	11.79
597.328	11.78
597.669	11.77
598.011	11.73
598.352	11.68
598.693	11.68
599.034	11.64
599.375	11.63
599.716	11.6
600.057	11.59
600.398	11.57
600.739	11.56
601.08	11.56
601.42	11.53
601.761	11.5
602.102	11.5
602.442	11.5
602.783	11.48
603.123	11.47
603.464	11.45
603.804	11.41
604.145	11.41
604.485	11.39
604.825	11.34
605.166	11.32
605.506	11.29
605.846	11.29
606.186	11.28
606.526	11.26
606.866	11.23
607.206	11.22
607.546	11.13
607.886	11.09
608.225	11.06
608.565	11.01
608.905	10.99
609.245	10.95
609.584	10.89
609.924	10.87
610.263	10.87
610.603	10.87
610.942	10.86
611.281	10.86
611.621	10.82
611.96	10.8
612.299	10.77
612.638	10.76
612.978	10.76
613.317	10.76
613.656	10.73
613.995	10.72
614.334	10.72
614.672	10.71
615.011	10.71
615.35	10.72
615.689	10.7
616.027	10.67
616.366	10.67
616.705	10.66
617.043	10.66
617.382	10.62
617.72	10.58
618.059	10.57
618.397	10.56
618.735	10.56
619.073	10.52
619.412	10.49
619.75	10.48
620.088	10.45
620.426	10.43
620.764	10.4
621.102	10.38
621.44	10.37
621.778	10.34
622.115	10.27
622.453	10.27
622.791	10.26
623.129	10.22
623.466	10.18
623.804	10.18
624.141	10.18
624.479	10.15
624.816	10.14
625.153	10.11
625.491	10.07
625.828	10.05
626.165	10.01
626.502	9.99
626.84	9.97
627.177	9.95
627.514	9.87
627.851	9.85
628.188	9.86
628.524	9.82
628.861	9.81
629.198	9.72
629.535	9.66
629.871	9.65
630.208	9.65
630.545	9.65
630.881	9.61
631.218	9.58
631.554	9.51
631.89	9.5
632.227	9.46
632.563	9.48
632.899	9.49
633.235	9.5
633.572	9.49
633.908	9.45
634.244	9.44
634.58	9.45
634.916	9.48
635.251	9.51
635.587	9.47
635.923	9.47
636.259	9.4
636.595	9.36
636.93	9.33
637.266	9.31
637.601	9.26
637.937	9.17
638.272	9.09
638.608	9.03
638.943	9
639.278	8.93
639.613	8.95
639.949	8.94
640.284	8.89
640.619	8.85
640.954	8.82
641.289	8.81
641.624	8.85
641.959	8.9
642.294	8.88
642.628	8.84
642.963	8.84
643.298	8.72
643.632	8.72
643.967	8.68
644.302	8.66
644.636	8.66
644.971	8.59
645.305	8.55
645.639	8.47
645.974	8.48
646.308	8.41
646.642	8.38
646.976	8.42
647.31	8.39
647.644	8.38
647.978	8.36
648.312	8.32
648.646	8.34
648.98	8.34
649.314	8.31
649.647	8.24
649.981	8.25
650.315	8.2
650.648	8.1
650.982	8.08
651.315	8.04
651.649	7.99
651.982	7.96
652.316	7.93
652.649	7.94
652.982	7.89
653.315	7.92
653.648	7.9
653.982	7.89
654.315	7.92
654.648	7.89
654.981	7.96
655.313	7.99
655.646	7.94
655.979	7.88
656.312	7.81
656.644	7.78
656.977	7.73
657.31	7.68
657.642	7.65
657.975	7.59
658.307	7.6
658.64	7.49
658.972	7.43
659.304	7.49
659.636	7.54
659.969	7.51
660.301	7.46
660.633	7.47
660.965	7.48
661.297	7.55
661.629	7.62
661.961	7.56
662.292	7.61
662.624	7.59
662.956	7.56
663.288	7.57
663.619	7.57
663.951	7.66
664.282	7.63
664.614	7.62
664.945	7.59
665.276	7.47
665.608	7.49
665.939	7.42
666.27	7.45
666.601	7.47
666.933	7.41
667.264	7.4
667.595	7.33
667.926	7.27
668.256	7.23
668.587	7.15
668.918	7.22
669.249	7.17
669.58	7.2
669.91	7.14
670.241	6.97
670.571	6.94
670.902	6.88
671.232	6.93
671.563	6.91
671.893	6.92
672.223	6.9
672.554	6.87
672.884	6.85
673.214	6.89
673.544	6.92
673.874	7
674.204	6.97
674.534	7.07
674.864	7.03
675.194	7.05
675.524	6.98
675.853	6.97
676.183	6.97
676.513	7.03
676.842	6.87
677.172	6.81
677.501	6.79
677.831	6.78
678.16	6.7
678.489	6.66
678.819	6.73
679.148	6.87
679.477	6.86
679.806	6.81
680.135	6.77
680.464	6.84
680.793	6.83
681.122	6.84
681.451	6.88
681.78	6.77
682.108	6.71
682.437	6.56
682.766	6.39
683.094	6.37
683.423	6.31
683.751	6.33
684.08	6.32
684.408	6.29
684.737	6.21
685.065	6.15
685.393	6.31
685.721	6.4
686.049	6.43
686.377	6.46
686.705	6.51
687.033	6.63
687.361	6.55
687.689	6.45
688.017	6.49
688.345	6.53
688.673	6.56
689.0	6.5
689.328	6.5
689.655	6.51
689.983	6.61
690.31	6.61
690.638	6.64
690.965	6.62
691.292	6.7
691.62	6.69
691.947	6.66
692.274	6.62
692.601	6.62
692.928	6.59
693.255	6.62
693.582	6.46
693.909	6.4
694.236	6.25
694.562	6.21
694.889	6.13
695.216	6.07
695.542	6.07
695.869	5.97
696.196	6.01
696.522	5.95
696.848	5.92
697.175	5.95
697.501	5.93
697.827	5.95
698.154	6.06
698.48	6.08
698.806	6.09
699.132	6.11
699.458	6.24
699.784	6.22
700.11	6.22
700.435	6.18
700.761	6.12
701.087	6.11
701.413	6.02
701.738	5.89
702.064	5.8
702.389	5.72
702.715	5.65
703.04	5.49
703.366	5.47
703.691	5.48
704.016	5.44
704.341	5.53
704.666	5.52
704.992	5.56
705.317	5.64
705.642	5.77
705.967	5.86
706.291	5.78
706.616	5.81
706.941	5.72
707.266	5.73
707.59	5.84
707.915	5.87
708.24	5.77
708.564	5.72
708.889	5.7
709.213	5.63
709.537	5.53
709.862	5.54
710.186	5.58
710.51	5.56
710.834	5.45
711.158	5.36
711.482	5.25
711.806	5.3
712.13	5.37
712.454	5.34
712.778	5.43
713.102	5.52
713.426	5.6
713.749	5.61
714.073	5.71
714.396	5.78
714.72	5.84
715.043	5.77
715.367	5.67
715.69	5.68
716.013	5.64
716.337	5.54
716.66	5.59
716.983	5.68
717.306	5.72
717.629	5.68
717.952	5.65
718.275	5.67
718.598	5.74
718.921	5.93
719.243	6
719.566	5.94
719.889	6.15
720.211	6.08
720.534	6.03
720.856	5.99
721.179	5.95
721.501	5.97
721.823	6.02
722.146	5.99
722.468	5.99
722.79	5.95
723.112	6.11
723.434	5.98
723.756	6.06
724.078	6.06
724.4	5.94
724.722	5.89
725.044	5.86
725.366	5.74
725.687	5.74
726.009	5.82
726.33	5.7
726.652	5.66
726.973	5.64
727.295	5.49
727.616	5.35
727.938	5.55
728.259	5.54
728.58	5.51
728.901	5.52
729.222	5.63
729.543	5.46
729.864	5.58
730.185	5.46
730.506	5.35
730.827	5.45
731.148	5.52
731.468	5.38
731.789	5.32
732.11	5.41
732.43	5.55
732.751	5.5
733.071	5.52
733.392	5.61
733.712	5.82
734.032	5.89
734.352	5.88
734.673	5.83
734.993	5.83
735.313	5.98
735.633	5.92
735.953	5.8
736.273	5.78
736.593	5.74
736.912	5.57
737.232	5.46
737.552	5.37
737.871	5.29
738.191	5.37
738.51	5.56
738.83	5.51
739.149	5.44
739.469	5.64
739.788	5.89
740.107	6.02
740.426	6.2
740.746	6.34
741.065	6.51
741.384	6.62
741.703	6.68
742.022	6.57
742.341	6.69
742.659	6.83
742.978	6.46
743.297	5.91
743.615	5.58
743.934	5.29
744.253	5.05
744.571	5.11
744.89	4.89
745.208	4.64
745.526	4.59
745.845	4.23
746.163	4.14
746.481	4.36
746.799	4.41
747.117	4.5
747.435	4.52
747.753	4.44
748.071	4.3
748.389	4.33
748.706	4.59
749.024	4.67
749.342	4.8
749.659	5.2
749.977	4.83
750.295	5.08
750.612	5.1
750.929	5.23
751.247	5.29
751.564	5.3
751.881	5.43
752.198	5.44
752.516	5.46
752.833	5.55
753.15	5.03
753.467	5.46
753.783	5.52
754.1	5.46
754.417	5.43
754.734	5.42
755.05	5.52
755.367	5.47
755.684	5.28
756.0	5.11
756.317	4.81
756.633	5.13
756.949	5.05
757.266	4.88
757.582	5.24
757.898	5.43
758.214	5.6
758.53	5.59
758.846	5.83
759.162	5.93
759.478	6.15
759.794	6.5
760.11	6.63
760.426	6.44
760.741	6.57
761.057	6.31
761.372	6.12
761.688	6.02
762.003	6.27
762.319	5.96
762.634	5.93
762.949	5.56
763.265	5.37
763.58	5.07
763.895	5.07
764.21	4.92
764.525	4.84
764.84	4.71
765.155	4.57
765.47	4.25
765.785	4.39
766.099	4.13
766.414	4.31
766.729	4.44
767.043	4.65
767.358	4.78
767.672	4.99
767.987	5.23
768.301	5.54
768.615	5.74
768.929	5.72
769.244	5.5
769.558	5.63
769.872	5.83
770.186	5.7
770.5	5.42
770.814	5.49
771.127	5.59
771.441	5.53
771.755	5.63
772.069	5.42
772.382	5.98
772.696	6.14
773.009	6.35
773.323	6.21
773.636	6.06
773.95	5.86
774.263	5.63
774.576	5.53
774.889	5.63
775.202	5.66
775.515	6
775.828	5.87
776.141	5.75
776.454	5.58
776.767	5.58
777.08	5.88
777.393	6.6
777.705	6.61
778.018	6.3
778.33	6
778.643	5.54
778.955	5.49
779.268	5.31
779.58	5.76
779.892	5.7
780.205	5.55
780.517	5.81
780.829	5.41
781.141	5.95
781.453	6.23
781.765	6.47
782.077	6.19
782.388	5.87
782.7	5.15
783.012	4.78
783.324	4.87
783.635	4.88
783.947	4.23
784.258	4.27
784.57	4.38
784.881	4.09
785.192	4.37
785.504	4.92
785.815	4.96
786.126	5.36
786.437	5.59
786.748	5.41
787.059	5.64
787.37	6
787.681	5.79
787.992	5.38
788.302	6.04
788.613	6.19
788.924	6.09
789.234	6.43
789.545	6.66
789.855	6.35
790.166	6.78
790.476	6.84
790.786	6.25
791.096	6.06
791.407	5.86
791.717	5.72
792.027	5.3
792.337	5.49
792.647	5.14
792.957	4.74
793.266	4.93
793.576	4.82
793.886	5
794.196	5.63
794.505	6.95
794.815	7.25
795.124	6.83
795.434	7.21
795.743	6.64
796.052	6.78
796.362	7.32
796.671	7.49
796.98	7.62
797.289	7.07
797.598	6.52
797.907	5.83
798.216	5.81
798.525	5.73
798.834	5.13
799.142	5.66
799.451	5.41
799.76	5.11
800.068	5.31
800.377	5.08
800.685	4.98
800.994	5.22
801.302	4.73
801.61	4.71
801.918	4.39
802.227	4.2
802.535	3.88
802.843	4.09
803.151	3.34
803.459	2.48
803.767	2.14
804.074	2.23
804.382	2.69
804.69	3.17
804.998	2.93
805.305	3.57
805.613	4.09
805.92	4.21
806.228	4.44
806.535	4.53
806.842	4.86
807.15	4.86
807.457	4.76
807.764	4.86
808.071	4.29
808.378	5.09
808.685	4.89
808.992	4.78
809.299	4.3
809.605	4.23
809.912	5.46
810.219	4.66
810.525	5.09
810.832	5.4
811.138	4.97
811.445	5.51
811.751	4.78
812.058	5.53
812.364	5.65
812.67	6.31
812.976	6.32
813.282	6.19
813.588	7.3
813.894	7.6
814.2	7.41
814.506	7.87
814.812	8.72
815.118	8.79
815.423	8.48
815.729	7.86
816.035	6.95
816.34	7.33
816.646	6.7
816.951	6.75
817.256	5.73
817.562	6.48
817.867	5.72
818.172	5.12
818.477	5.28
818.782	5.22
819.087	5.64
819.392	6.88
819.697	6.81
820.002	6.58
820.306	6.52
820.611	6.5
820.916	6.31
821.22	6.95
821.525	6.49
821.829	6.23
822.134	5.78
822.438	5.87
822.742	5.54
823.047	5.51
823.351	5.66
823.655	5.6
823.959	5.75
824.263	5.75
824.567	5.78
824.871	5.71
825.174	5.72
825.478	7.18
825.782	7.16
826.086	7.33
826.389	7.4
826.693	7.17
826.996	6.92
827.3	6.83
827.603	6.68
827.906	6.45
828.209	6.41
828.513	6.32
828.816	4.68
829.119	4.51
829.422	4.26
829.725	4.18
830.028	4.42
830.33	5.23
830.633	5.74
830.936	6.02
831.238	5.97
831.541	6.61
831.844	6.8
832.146	6.52
832.448	6.69
832.751	7.15
833.053	7.34
833.355	8.03
833.657	7.03
833.96	6.77
834.262	6.6
834.564	6.55
834.865	6.08
835.167	6.13
835.469	6.12
835.771	5.81
836.073	5.71
836.374	5.54
836.676	5.4
836.977	6.1
837.279	5.8
837.58	5.78
837.882	6.71
838.183	6.49
838.484	7.04
838.785	7.46
839.086	7.99
839.387	8.39
839.688	8.45
839.989	8.07
840.29	7.59
840.591	7.9
840.892	7.89
841.192	7.92
841.493	8.14
841.794	8.29
842.094	8.09
842.394	7.95
842.695	7.95
842.995	7.95
843.295	7.95
843.596	7.95
843.896	7.95
844.196	7.95
844.496	7.95
844.796	7.95
845.096	7.95
845.396	7.95
845.695	7.95
845.995	2.34
846.295	3.91
846.594	4.89
846.894	5.5
847.194	5.34
847.493	5.82
847.792	5.99
848.092	7.77
848.391	8.02
848.69	9.58
848.989	8.23
849.288	7.88
849.587	8.61
849.886	7.88
850.185	7.98
850.484	7.06
850.783	6.74
851.081	5.97
851.38	4.37
851.679	5.49
851.977	4.63
852.276	3.12
852.574	2.55
852.872	1.63
853.171	3.22
853.469	4.25
853.767	4.51
854.065	5.56
854.363	7.49
854.661	8.44
854.959	10.13
855.257	11.07
855.555	15.91
855.853	16.37
856.15	16.32
856.448	16.16
856.746	14.35
857.043	12.9
857.341	14.57
857.638	13.51
857.935	13.1
858.233	11.78
858.53	10.88
858.827	9.63
859.124	11.26
859.421	13.25
859.718	15.24
860.015	14.93
860.312	17.41
860.609	15.07
860.905	17.11
861.202	17.12
861.499	15.72
861.795	16.52
862.092	17.12
862.388	14.13
862.684	13.89
862.981	10.41
863.277	11.51
863.573	10.03
863.869	11.15
864.165	7.1
864.461	6.23
864.757	8.05
865.053	6.88
865.349	4.62
865.645	4.83
865.94	2.83
866.236	4.96
866.532	5.79
866.827	7.03
867.123	7.92
867.418	10.58
867.713	11.11
868.009	10.42
868.304	10.09
868.599	11.7
868.894	12.13
869.189	13.61
869.484	11.56
869.779	10.33
870.074	5.41
870.369	3.77
870.663	5.87
870.958	8.29
871.252	10.24
871.547	11.78
871.842	11.13
872.136	13.49
872.43	12.84
872.725	16.08
873.019	15.03
873.313	19.97
873.607	19.68
873.901	17.68
874.195	16.68
874.489	16.69
874.783	17.72
875.077	17.3
875.37	14.73
875.664	16.26
875.958	14.95
876.251	17.88
876.545	18.6
876.838	17.99
877.132	16.05
877.425	19.2
877.718	17.58
878.011	14.42
878.305	15.14
878.598	15.38
878.891	13.52
879.184	11.18
879.476	11.51
879.769	11.48
880.062	10.06
880.355	8.71
880.647	3.85
880.94	5.01
881.232	4.26
881.525	4.06
881.817	2.79
882.11	4.61
882.402	5.42
882.694	3.84
882.986	2.69
883.278	4.38
883.57	6.13
883.862	6.96
884.154	6.39
884.446	6.73
884.738	6.4
885.03	7.32
885.321	6.7
885.613	6.69
885.904	6.78
886.196	7.39
886.487	7.28
886.779	7.31
887.07	6.9
887.361	7.18
887.652	7.61
887.943	7.52
888.234	6.75
888.525	7.48
888.816	9.18
889.107	10.88
889.398	11.83
889.689	11.7
889.979	11.62
890.27	12.83
890.56	13.55
890.851	13.09
891.141	15.38
891.432	18.41
891.722	18.69
