Data from groin3_Reflection__1__15-27-00-732.txt Node

Date: Thu Aug 04 15:27:00 AEST 2022
User: kathy
Spectrometer: JAZA2503
Trigger mode: 0
Integration Time (sec): 2.439700E-1
Scans to average: 10
Electric dark correction enabled: true
Nonlinearity correction enabled: true
Boxcar width: 5
XAxis mode: Wavelengths
Number of Pixels in Spectrum: 2048
>>>>>Begin Spectral Data<<<<<
189.467	81.7
189.852	35.77
190.237	64.76
190.622	35.7
191.007	10.05
191.392	44.94
191.777	17.41
192.162	19.42
192.546	36.38
192.931	53.95
193.316	354.78
193.701	255.93
194.086	47.24
194.47	100.39
194.855	-2422.3
195.24	-156.17
195.624	208.93
196.009	109
196.393	203.53
196.778	463.74
197.163	198.01
197.547	90.19
197.931	72.73
198.316	74.28
198.7	72.45
199.085	59.81
199.469	61.37
199.853	60.25
200.237	57.84
200.622	52.81
201.006	51.9
201.39	50.89
201.774	50.93
202.158	56.38
202.542	48.98
202.926	41.15
203.31	39.32
203.694	37.39
204.078	31.76
204.462	34.65
204.846	36.47
205.23	36.23
205.614	35.09
205.998	41.49
206.381	40.36
206.765	45.66
207.149	43.07
207.532	41.9
207.916	40.85
208.3	36.77
208.683	35.19
209.067	33.65
209.45	27.01
209.834	31.62
210.217	27.23
210.601	23.61
210.984	25.75
211.367	37.48
211.751	36.2
212.134	35.46
212.517	41.3
212.901	41.24
213.284	43.34
213.667	46.78
214.05	40.34
214.433	38.06
214.816	41.23
215.199	37.7
215.582	32.77
215.965	29.53
216.348	31.45
216.731	27.02
217.114	22.07
217.497	17.24
217.88	14.1
218.262	13.52
218.645	17.19
219.028	12.57
219.411	11.11
219.793	11.08
220.176	11.9
220.559	13.65
220.941	13.45
221.324	18.7
221.706	22.84
222.089	23.86
222.471	24.72
222.853	22.94
223.236	25.73
223.618	25
224	22.92
224.383	22.79
224.765	19.84
225.147	19.26
225.529	17.21
225.912	13.58
226.294	11.78
226.676	9.93
227.058	7.86
227.44	5.46
227.822	5.7
228.204	6.2
228.586	5.32
228.968	4.9
229.349	4.94
229.731	5.09
230.113	5.03
230.495	5.04
230.877	5.3
231.258	5.53
231.64	6.13
232.022	5.59
232.403	5.14
232.785	5.51
233.166	5.43
233.548	5.25
233.929	4.52
234.311	4.8
234.692	4.74
235.073	4.41
235.455	4.26
235.836	4.65
236.217	4.74
236.599	4.97
236.98	4.97
237.361	5.11
237.742	4.86
238.123	4.82
238.504	4.58
238.885	4.23
239.266	4.23
239.647	3.87
240.028	3.16
240.409	3.11
240.79	3.08
241.171	2.87
241.552	2.78
241.933	2.6
242.313	2.83
242.694	2.72
243.075	2.78
243.456	2.6
243.836	2.62
244.217	2.8
244.597	2.81
244.978	2.61
245.358	2.65
245.739	2.54
246.119	2.65
246.5	2.48
246.88	2.37
247.26	2.29
247.641	2.31
248.021	2.42
248.401	2.35
248.781	2.36
249.162	2.46
249.542	2.46
249.922	2.52
250.302	2.62
250.682	2.69
251.062	2.76
251.442	2.81
251.822	2.8
252.202	2.68
252.582	2.56
252.961	2.53
253.341	2.48
253.721	2.49
254.101	2.37
254.48	2.24
254.86	2.25
255.24	2.25
255.619	2.21
255.999	2.28
256.378	2.2
256.758	2.33
257.137	2.35
257.517	2.23
257.896	2.19
258.276	2.1
258.655	1.83
259.034	1.72
259.414	1.74
259.793	1.7
260.172	1.59
260.551	1.6
260.93	1.48
261.309	1.43
261.688	1.41
262.068	1.42
262.447	1.5
262.825	1.65
263.204	1.56
263.583	1.54
263.962	1.56
264.341	1.74
264.72	1.7
265.099	1.8
265.477	1.86
265.856	1.86
266.235	1.8
266.613	1.67
266.992	1.59
267.371	1.62
267.749	1.63
268.128	1.57
268.506	1.48
268.884	1.63
269.263	1.59
269.641	1.47
270.02	1.47
270.398	1.42
270.776	1.48
271.154	1.46
271.533	1.53
271.911	1.52
272.289	1.57
272.667	1.56
273.045	1.49
273.423	1.42
273.801	1.47
274.179	1.41
274.557	1.46
274.935	1.36
275.313	1.4
275.69	1.45
276.068	1.42
276.446	1.47
276.824	1.4
277.201	1.42
277.579	1.52
277.957	1.46
278.334	1.54
278.712	1.5
279.089	1.51
279.467	1.43
279.844	1.4
280.222	1.35
280.599	1.26
280.976	1.31
281.354	1.26
281.731	1.21
282.108	1.25
282.485	1.22
282.863	1.22
283.24	1.27
283.617	1.31
283.994	1.31
284.371	1.33
284.748	1.38
285.125	1.37
285.502	1.4
285.879	1.43
286.256	1.45
286.633	1.53
287.009	1.58
287.386	1.6
287.763	1.63
288.139	1.57
288.516	1.64
288.893	1.7
289.269	1.72
289.646	1.76
290.022	1.81
290.399	1.85
290.775	1.85
291.152	1.89
291.528	1.95
291.904	1.96
292.281	2.06
292.657	2.1
293.033	2.13
293.41	2.21
293.786	2.28
294.162	2.36
294.538	2.43
294.914	2.51
295.29	2.61
295.666	2.68
296.042	2.82
296.418	2.91
296.794	3
297.17	3.13
297.546	3.23
297.921	3.32
298.297	3.42
298.673	3.53
299.048	3.64
299.424	3.74
299.8	3.88
300.175	4
300.551	4.15
300.926	4.3
301.302	4.41
301.677	4.54
302.053	4.67
302.428	4.79
302.803	4.91
303.179	5.03
303.554	5.13
303.929	5.26
304.304	5.36
304.68	5.42
305.055	5.55
305.43	5.64
305.805	5.77
306.18	5.88
306.555	5.99
306.93	6.09
307.305	6.15
307.679	6.24
308.054	6.27
308.429	6.29
308.804	6.35
309.179	6.37
309.553	6.39
309.928	6.36
310.303	6.4
310.677	6.43
311.052	6.42
311.426	6.48
311.801	6.53
312.175	6.57
312.55	6.67
312.924	6.73
313.298	6.78
313.673	6.85
314.047	6.94
314.421	6.98
314.795	7.02
315.17	7.1
315.544	7.13
315.918	7.16
316.292	7.25
316.666	7.32
317.04	7.42
317.414	7.53
317.788	7.63
318.162	7.79
318.535	7.97
318.909	8.13
319.283	8.32
319.657	8.49
320.03	8.77
320.404	9
320.778	9.47
321.151	10.06
321.525	10.71
321.898	11.44
322.272	12.19
322.645	12.96
323.019	13.84
323.392	14.82
323.765	15.98
324.139	17.15
324.512	18.38
324.885	19.6
325.258	20.79
325.632	21.71
326.005	22.44
326.378	23.15
326.751	23.63
327.124	23.98
327.497	24.2
327.87	24.48
328.243	24.59
328.616	24.71
328.988	24.75
329.361	24.7
329.734	24.67
330.107	24.59
330.479	24.44
330.852	24.24
331.225	24.07
331.597	23.88
331.97	23.61
332.342	23.38
332.715	23.1
333.087	22.9
333.46	22.74
333.832	22.55
334.204	22.55
334.577	22.48
334.949	22.4
335.321	22.3
335.693	22.15
336.065	21.99
336.438	21.7
336.81	21.47
337.182	21.29
337.554	21.01
337.926	20.79
338.298	20.63
338.669	20.52
339.041	20.34
339.413	20.24
339.785	20.17
340.157	20.04
340.528	19.95
340.9	19.87
341.272	19.79
341.643	19.78
342.015	19.84
342.386	19.95
342.758	20.1
343.129	20.32
343.501	20.47
343.872	20.53
344.243	20.57
344.615	20.55
344.986	20.45
345.357	20.42
345.728	20.4
346.099	20.38
346.471	20.3
346.842	20.33
347.213	20.33
347.584	20.39
347.955	20.38
348.326	20.37
348.697	20.34
349.067	20.34
349.438	20.41
349.809	20.49
350.18	20.66
350.55	20.73
350.921	20.8
351.292	20.97
351.662	21.07
352.033	21.15
352.403	21.24
352.774	21.23
353.144	21.29
353.515	21.35
353.885	21.38
354.255	21.4
354.626	21.39
354.996	21.4
355.366	21.34
355.736	21.32
356.107	21.28
356.477	21.27
356.847	21.32
357.217	21.32
357.587	21.32
357.957	21.35
358.327	21.37
358.697	21.45
359.066	21.48
359.436	21.55
359.806	21.59
360.176	21.65
360.546	21.7
360.915	21.74
361.285	21.78
361.654	21.81
362.024	21.82
362.393	21.85
362.763	21.87
363.132	21.87
363.502	21.89
363.871	21.89
364.24	21.92
364.61	21.94
364.979	21.95
365.348	21.94
365.717	21.96
366.087	21.99
366.456	21.99
366.825	22.03
367.194	22.07
367.563	22.09
367.932	22.14
368.301	22.21
368.669	22.27
369.038	22.3
369.407	22.37
369.776	22.41
370.145	22.44
370.513	22.5
370.882	22.52
371.25	22.55
371.619	22.58
371.988	22.55
372.356	22.57
372.724	22.54
373.093	22.58
373.461	22.58
373.83	22.59
374.198	22.59
374.566	22.59
374.934	22.59
375.303	22.62
375.671	22.63
376.039	22.66
376.407	22.66
376.775	22.7
377.143	22.72
377.511	22.75
377.879	22.79
378.247	22.86
378.615	22.93
378.982	22.96
379.35	22.99
379.718	23.04
380.086	23.12
380.453	23.17
380.821	23.22
381.188	23.27
381.556	23.31
381.923	23.31
382.291	23.35
382.658	23.38
383.026	23.45
383.393	23.49
383.76	23.53
384.128	23.57
384.495	23.6
384.862	23.6
385.229	23.57
385.596	23.57
385.963	23.62
386.33	23.6
386.697	23.61
387.064	23.61
387.431	23.6
387.798	23.58
388.165	23.57
388.532	23.6
388.899	23.63
389.265	23.67
389.632	23.69
389.999	23.68
390.365	23.73
390.732	23.71
391.098	23.71
391.465	23.71
391.831	23.74
392.198	23.74
392.564	23.74
392.93	23.75
393.297	23.79
393.663	23.81
394.029	23.84
394.395	23.87
394.762	23.91
395.128	23.95
395.494	24.01
395.86	24.07
396.226	24.1
396.592	24.12
396.958	24.16
397.323	24.19
397.689	24.25
398.055	24.31
398.421	24.36
398.787	24.41
399.152	24.44
399.518	24.47
399.883	24.5
400.249	24.59
400.615	24.63
400.98	24.69
401.345	24.73
401.711	24.76
402.076	24.77
402.442	24.79
402.807	24.8
403.172	24.84
403.537	24.86
403.902	24.9
404.268	24.88
404.633	24.9
404.998	24.89
405.363	24.89
405.728	24.92
406.093	24.93
406.457	24.93
406.822	24.97
407.187	25.01
407.552	25.08
407.917	25.12
408.281	25.16
408.646	25.21
409.011	25.27
409.375	25.36
409.74	25.4
410.104	25.46
410.469	25.53
410.833	25.57
411.197	25.59
411.562	25.62
411.926	25.63
412.29	25.68
412.655	25.72
413.019	25.75
413.383	25.79
413.747	25.85
414.111	25.91
414.475	25.99
414.839	26.07
415.203	26.15
415.567	26.19
415.931	26.25
416.295	26.31
416.658	26.35
417.022	26.37
417.386	26.38
417.749	26.39
418.113	26.41
418.477	26.41
418.84	26.4
419.204	26.43
419.567	26.46
419.931	26.51
420.294	26.56
420.657	26.61
421.021	26.68
421.384	26.75
421.747	26.82
422.11	26.88
422.473	26.97
422.836	27.05
423.199	27.08
423.562	27.15
423.925	27.19
424.288	27.26
424.651	27.29
425.014	27.34
425.377	27.36
425.74	27.4
426.102	27.45
426.465	27.45
426.828	27.49
427.19	27.54
427.553	27.6
427.916	27.64
428.278	27.62
428.641	27.64
429.003	27.68
429.365	27.69
429.728	27.69
430.09	27.71
430.452	27.7
430.814	27.71
431.177	27.71
431.539	27.69
431.901	27.72
432.263	27.78
432.625	27.83
432.987	27.87
433.349	27.95
433.711	28.05
434.072	28.16
434.434	28.29
434.796	28.41
435.158	28.53
435.519	28.64
435.881	28.75
436.243	28.8
436.604	28.87
436.966	28.94
437.327	28.98
437.689	29.01
438.05	29.01
438.411	29.03
438.773	29.05
439.134	29.04
439.495	29.07
439.856	29.1
440.218	29.16
440.579	29.21
440.94	29.31
441.301	29.39
441.662	29.45
442.023	29.52
442.384	29.6
442.745	29.68
443.105	29.75
443.466	29.83
443.827	29.91
444.188	29.99
444.548	30.03
444.909	30.07
445.269	30.13
445.63	30.13
445.99	30.18
446.351	30.2
446.711	30.21
447.072	30.25
447.432	30.26
447.792	30.28
448.153	30.31
448.513	30.32
448.873	30.36
449.233	30.39
449.593	30.46
449.953	30.46
450.313	30.5
450.673	30.57
451.033	30.64
451.393	30.71
451.753	30.75
452.113	31.23
452.472	31.29
452.832	31.31
453.192	31.3
453.551	31.31
453.911	31.28
454.271	31.21
454.63	31.19
454.989	31.18
455.349	31.15
455.708	31.15
456.068	30.93
456.427	30.96
456.786	31
457.145	31.07
457.505	31.15
457.864	31.28
458.223	31.45
458.582	31.61
458.941	31.76
459.3	31.91
459.659	32.04
460.018	32.14
460.376	32.22
460.735	32.3
461.094	32.36
461.453	32.44
461.811	32.48
462.17	32.52
462.529	32.54
462.887	32.57
463.246	32.59
463.604	32.63
463.963	32.68
464.321	32.63
464.679	32.67
465.038	32.73
465.396	32.78
465.754	32.86
466.112	32.93
466.47	33.02
466.828	33.1
467.186	33.21
467.544	33.27
467.902	33.36
468.26	33.55
468.618	33.63
468.976	33.64
469.334	33.68
469.692	33.69
470.049	33.69
470.407	33.66
470.765	33.64
471.122	33.66
471.48	33.73
471.837	33.77
472.195	33.83
472.552	33.92
472.909	34.02
473.267	34.09
473.624	34.13
473.981	34.21
474.338	34.28
474.696	34.33
475.053	34.42
475.41	34.43
475.767	34.49
476.124	34.54
476.481	34.54
476.838	34.54
477.194	34.56
477.551	34.6
477.908	34.65
478.265	34.67
478.621	34.72
478.978	34.72
479.335	34.78
479.691	34.81
480.048	34.86
480.404	34.91
480.761	34.97
481.117	35
481.473	35.03
481.83	35.05
482.186	35.09
482.542	35.11
482.898	35.13
483.255	35.15
483.611	35.16
483.967	35.17
484.323	35.2
484.679	35.25
485.035	35.29
485.39	35.31
485.746	35.34
486.102	35.38
486.458	35.42
486.814	35.46
487.169	35.52
487.525	35.55
487.88	35.59
488.236	35.59
488.591	35.58
488.947	35.57
489.302	35.57
489.658	35.53
490.013	35.51
490.368	35.47
490.723	35.44
491.079	35.39
491.434	35.37
491.789	35.37
492.144	35.36
492.499	35.38
492.854	35.41
493.209	35.43
493.564	35.49
493.919	35.53
494.273	35.6
494.628	35.63
494.983	35.68
495.338	35.67
495.692	35.66
496.047	35.67
496.401	35.63
496.756	35.57
497.11	35.54
497.465	35.47
497.819	35.4
498.173	35.33
498.528	35.29
498.882	35.24
499.236	35.24
499.59	35.21
499.944	35.2
500.298	35.2
500.652	35.18
501.006	35.19
501.36	35.21
501.714	35.19
502.068	35.2
502.422	35.22
502.776	35.25
503.129	35.31
503.483	35.37
503.837	35.44
504.19	35.5
504.544	35.57
504.897	35.58
505.251	35.56
505.604	35.6
505.958	35.58
506.311	35.54
506.664	35.5
507.017	35.38
507.371	35.28
507.724	35.16
508.077	35.07
508.43	35
508.783	34.97
509.136	34.96
509.489	34.91
509.842	34.9
510.195	34.88
510.547	34.84
510.9	34.8
511.253	34.72
511.606	34.65
511.958	34.57
512.311	34.46
512.663	34.31
513.016	34.2
513.368	34.08
513.721	34
514.073	33.93
514.425	33.85
514.778	33.77
515.13	33.76
515.482	33.73
515.834	33.72
516.186	33.72
516.538	33.75
516.89	33.78
517.242	33.87
517.594	33.88
517.946	33.88
518.298	33.91
518.65	33.92
519.001	33.87
519.353	33.84
519.705	33.76
520.056	33.67
520.408	33.61
520.759	33.48
521.111	33.36
521.462	33.29
521.814	33.22
522.165	33.17
522.516	33.11
522.868	33.09
523.219	33.01
523.57	32.97
523.921	32.9
524.272	32.81
524.623	32.74
524.974	32.63
525.325	32.54
525.676	32.43
526.027	32.35
526.378	32.26
526.728	32.17
527.079	32.12
527.43	32.05
527.78	32.04
528.131	31.96
528.481	31.9
528.832	31.86
529.182	31.81
529.533	31.76
529.883	31.66
530.233	31.63
530.584	31.56
530.934	31.48
531.284	31.37
531.634	31.23
531.984	31.15
532.334	31.07
532.684	30.98
533.034	30.86
533.384	30.81
533.734	30.72
534.084	30.58
534.434	30.46
534.783	30.37
535.133	30.29
535.483	30.24
535.832	30.21
536.182	30.11
536.531	30.01
536.881	29.93
537.23	29.82
537.58	29.74
537.929	29.69
538.278	31.37
538.628	31.27
538.977	31.18
539.326	31.07
539.675	30.97
540.024	30.89
540.373	30.83
540.722	30.75
541.071	30.68
541.42	30.62
541.769	30.54
542.117	28.75
542.466	28.68
542.815	28.6
543.163	28.52
543.512	28.36
543.861	28.28
544.209	28.19
544.558	28.13
544.906	28.07
545.254	27.96
545.603	27.88
545.951	27.79
546.299	27.75
546.647	27.72
546.996	27.67
547.344	27.65
547.692	27.61
548.04	27.54
548.388	27.45
548.736	27.36
549.083	27.29
549.431	27.21
549.779	27.11
550.127	27
550.475	26.88
550.822	26.75
551.17	26.67
551.517	26.58
551.865	26.48
552.212	26.42
552.56	26.35
552.907	26.29
553.254	26.21
553.602	26.15
553.949	26.08
554.296	26
554.643	25.9
554.99	25.8
555.337	25.67
555.684	25.59
556.031	25.45
556.378	25.34
556.725	25.18
557.072	25.1
557.419	25.01
557.765	24.87
558.112	24.78
558.459	24.73
558.805	24.67
559.152	24.57
559.498	24.44
559.845	24.33
560.191	24.27
560.538	24.23
560.884	24.14
561.23	24.04
561.576	23.97
561.923	23.85
562.269	23.74
562.615	23.64
562.961	23.56
563.307	23.51
563.653	23.49
563.999	23.4
564.344	23.32
564.69	23.19
565.036	23.11
565.382	23.02
565.727	22.93
566.073	22.91
566.419	22.86
566.764	22.79
567.11	22.73
567.455	22.61
567.8	22.54
568.146	22.45
568.491	22.41
568.836	22.29
569.181	22.2
569.527	22.15
569.872	22.05
570.217	21.93
570.562	21.87
570.907	21.78
571.252	21.74
571.597	21.66
571.941	21.6
572.286	21.53
572.631	21.53
572.976	21.53
573.32	21.52
573.665	21.51
574.009	21.52
574.354	21.52
574.698	21.51
575.043	21.47
575.387	21.45
575.731	21.43
576.076	21.42
576.42	21.38
576.764	21.34
577.108	21.34
577.452	21.22
577.796	21.24
578.14	21.21
578.484	21.11
578.828	21.11
579.172	21.01
579.516	20.94
579.86	20.94
580.203	20.85
580.547	20.84
580.891	20.82
581.234	20.71
581.578	20.69
581.921	20.53
582.264	20.51
582.608	20.42
582.951	20.36
583.294	20.35
583.638	20.3
583.981	20.26
584.324	20.22
584.667	20.18
585.01	20.16
585.353	20.14
585.696	20.13
586.039	20.11
586.382	20.08
586.725	20.04
587.067	20.02
587.41	19.98
587.753	19.96
588.095	19.94
588.438	19.93
588.781	19.93
589.123	19.91
589.465	19.91
589.808	19.89
590.15	19.88
590.492	19.86
590.835	19.83
591.177	19.81
591.519	19.78
591.861	19.74
592.203	19.73
592.545	19.69
592.887	19.66
593.229	19.63
593.571	19.62
593.913	19.6
594.254	19.59
594.596	19.57
594.938	19.56
595.279	19.52
595.621	19.49
595.963	19.45
596.304	19.41
596.645	19.39
596.987	19.35
597.328	19.31
597.669	19.28
598.011	19.26
598.352	19.21
598.693	19.2
599.034	19.17
599.375	19.14
599.716	19.12
600.057	19.13
600.398	19.13
600.739	19.12
601.08	19.11
601.42	19.1
601.761	19.07
602.102	19.04
602.442	19.03
602.783	19.01
603.123	18.97
603.464	18.93
603.804	18.91
604.145	18.9
604.485	18.87
604.825	18.84
605.166	18.82
605.506	18.79
605.846	18.76
606.186	18.73
606.526	18.67
606.866	18.64
607.206	18.61
607.546	18.52
607.886	18.43
608.225	18.37
608.565	18.33
608.905	18.28
609.245	18.22
609.584	18.19
609.924	18.13
610.263	18.11
610.603	18.08
610.942	18.04
611.281	18.01
611.621	17.97
611.96	17.94
612.299	17.93
612.638	17.9
612.978	17.9
613.317	17.84
613.656	17.83
613.995	17.8
614.334	17.79
614.672	17.76
615.011	17.75
615.35	17.74
615.689	17.72
616.027	17.71
616.366	17.69
616.705	17.69
617.043	17.65
617.382	17.59
617.72	17.5
618.059	17.49
618.397	17.47
618.735	17.46
619.073	17.44
619.412	17.39
619.75	17.32
620.088	17.3
620.426	17.29
620.764	17.25
621.102	17.19
621.44	17.17
621.778	17.12
622.115	17.07
622.453	17.03
622.791	17.02
623.129	17.02
623.466	16.91
623.804	16.9
624.141	16.84
624.479	16.83
624.816	16.81
625.153	16.8
625.491	16.76
625.828	16.7
626.165	16.67
626.502	16.63
626.84	16.6
627.177	16.57
627.514	16.52
627.851	16.49
628.188	16.47
628.524	16.39
628.861	16.32
629.198	16.3
629.535	16.25
629.871	16.24
630.208	16.29
630.545	16.26
630.881	16.2
631.218	16.15
631.554	16.15
631.89	16.11
632.227	16.12
632.563	16.15
632.899	16.06
633.235	16.01
633.572	15.95
633.908	15.89
634.244	15.88
634.58	15.89
634.916	15.83
635.251	15.85
635.587	15.76
635.923	15.72
636.259	15.7
636.595	15.72
636.93	15.72
637.266	15.75
637.601	15.67
637.937	15.58
638.272	15.53
638.608	15.53
638.943	15.4
639.278	15.44
639.613	15.38
639.949	15.35
640.284	15.27
640.619	15.18
640.954	15.1
641.289	15.07
641.624	15.02
641.959	14.99
642.294	14.89
642.628	14.83
642.963	14.83
643.298	14.79
643.632	14.78
643.967	14.71
644.302	14.71
644.636	14.68
644.971	14.63
645.305	14.64
645.639	14.6
645.974	14.61
646.308	14.54
646.642	14.43
646.976	14.4
647.31	14.3
647.644	14.31
647.978	14.28
648.312	14.27
648.646	14.27
648.98	14.21
649.314	14.17
649.647	14.14
649.981	14.17
650.315	14.14
650.648	14.09
650.982	14.11
651.315	14.04
651.649	14.03
651.982	13.95
652.316	13.94
652.649	13.94
652.982	13.92
653.315	13.95
653.648	13.97
653.982	14.04
654.315	14.05
654.648	13.96
654.981	14.03
655.313	14.04
655.646	14.09
655.979	13.93
656.312	13.9
656.644	13.88
656.977	13.76
657.31	13.62
657.642	13.46
657.975	13.39
658.307	13.39
658.64	13.27
658.972	13.14
659.304	13.01
659.636	13.08
659.969	13.01
660.301	12.87
660.633	12.89
660.965	12.91
661.297	13
661.629	13.05
661.961	12.99
662.292	13.04
662.624	13.16
662.956	13.18
663.288	13.2
663.619	13.28
663.951	13.38
664.282	13.35
664.614	13.35
664.945	13.28
665.276	13.11
665.608	13.13
665.939	13.07
666.27	12.91
666.601	12.92
666.933	12.84
667.264	12.74
667.595	12.68
667.926	12.65
668.256	12.61
668.587	12.55
668.918	12.62
669.249	12.52
669.58	12.49
669.91	12.51
670.241	12.46
670.571	12.5
670.902	12.44
671.232	12.49
671.563	12.44
671.893	12.46
672.223	12.46
672.554	12.44
672.884	12.48
673.214	12.49
673.544	12.49
673.874	12.46
674.204	12.41
674.534	12.5
674.864	12.43
675.194	12.47
675.524	12.46
675.853	12.49
676.183	12.42
676.513	12.4
676.842	12.3
677.172	12.31
677.501	12.31
677.831	12.27
678.16	12.17
678.489	12.13
678.819	12.17
679.148	12.15
679.477	12.15
679.806	12.14
680.135	12.08
680.464	12.13
680.793	12.05
681.122	11.98
681.451	12
681.78	11.9
682.108	11.9
682.437	11.81
682.766	11.72
683.094	11.59
683.423	11.59
683.751	11.65
684.08	11.61
684.408	11.62
684.737	11.66
685.065	11.59
685.393	11.77
685.721	11.78
686.049	11.73
686.377	11.75
686.705	11.8
687.033	11.81
687.361	11.74
687.689	11.76
688.017	11.73
688.345	11.76
688.673	11.76
689.0	11.7
689.328	11.71
689.655	11.78
689.983	11.86
690.31	11.83
690.638	11.92
690.965	11.97
691.292	11.9
691.62	11.93
691.947	11.89
692.274	11.87
692.601	11.99
692.928	12.01
693.255	11.92
693.582	11.85
693.909	11.93
694.236	11.79
694.562	11.86
694.889	11.88
695.216	11.93
695.542	12.09
695.869	11.9
696.196	11.74
696.522	11.64
696.848	11.64
697.175	11.58
697.501	11.48
697.827	11.44
698.154	11.3
698.48	11.27
698.806	11.14
699.132	10.98
699.458	11.16
699.784	11.19
700.11	11.14
700.435	11.2
700.761	11.24
701.087	11.27
701.413	11.3
701.738	11.34
702.064	11.34
702.389	11.31
702.715	11.33
703.04	11.27
703.366	11.32
703.691	11.36
704.016	11.3
704.341	11.33
704.666	11.3
704.992	11.3
705.317	11.29
705.642	11.4
705.967	11.47
706.291	11.47
706.616	11.39
706.941	11.32
707.266	11.33
707.59	11.17
707.915	11.09
708.24	10.93
708.564	10.86
708.889	10.74
709.213	10.61
709.537	10.49
709.862	10.39
710.186	10.47
710.51	10.32
710.834	10.34
711.158	10.48
711.482	10.48
711.806	10.55
712.13	10.61
712.454	10.66
712.778	10.75
713.102	10.77
713.426	10.79
713.749	10.77
714.073	10.83
714.396	10.82
714.72	10.76
715.043	10.62
715.367	10.63
715.69	10.56
716.013	10.5
716.337	10.36
716.66	10.54
716.983	10.69
717.306	10.81
717.629	10.86
717.952	10.83
718.275	10.94
718.598	11.04
718.921	11.11
719.243	11.33
719.566	11.5
719.889	11.72
720.211	11.67
720.534	11.67
720.856	11.44
721.179	11.49
721.501	11.61
721.823	11.62
722.146	11.66
722.468	11.55
722.79	11.48
723.112	11.44
723.434	11.18
723.756	11.24
724.078	11.22
724.4	11.18
724.722	11.11
725.044	10.82
725.366	10.69
725.687	10.51
726.009	10.69
726.33	10.63
726.652	10.62
726.973	10.73
727.295	10.63
727.616	10.58
727.938	10.63
728.259	10.67
728.58	10.76
728.901	10.98
729.222	11.3
729.543	11.2
729.864	11.16
730.185	11.02
730.506	10.87
730.827	11.06
731.148	10.95
731.468	10.91
731.789	10.8
732.11	10.91
732.43	10.77
732.751	10.7
733.071	10.54
733.392	10.54
733.712	10.73
734.032	10.97
734.352	10.79
734.673	10.67
734.993	10.71
735.313	10.98
735.633	11.17
735.953	11.09
736.273	10.93
736.593	11.01
736.912	11.06
737.232	10.95
737.552	10.79
737.871	10.65
738.191	10.94
738.51	11.3
738.83	11.15
739.149	10.94
739.469	11.11
739.788	11.48
740.107	11.59
740.426	11.68
740.746	11.86
741.065	11.9
741.384	11.95
741.703	11.92
742.022	11.73
742.341	11.64
742.659	11.64
742.978	11.57
743.297	11.21
743.615	11.09
743.934	10.93
744.253	10.6
744.571	10.73
744.89	10.63
745.208	10.44
745.526	10.39
745.845	10.34
746.163	10.21
746.481	10.23
746.799	9.99
747.117	9.93
747.435	9.89
747.753	10.17
748.071	10.18
748.389	10.23
748.706	10.24
749.024	10.25
749.342	10.31
749.659	10.51
749.977	10
750.295	10.14
750.612	10.09
750.929	9.91
751.247	9.78
751.564	9.87
751.881	9.95
752.198	10.26
752.516	10.26
752.833	10.3
753.15	10.17
753.467	10.43
753.783	10.74
754.1	10.98
754.417	10.99
754.734	10.76
755.05	10.8
755.367	10.93
755.684	10.82
756.0	10.84
756.317	10.74
756.633	10.87
756.949	11
757.266	10.94
757.582	10.97
757.898	11.46
758.214	11.98
758.53	11.79
758.846	11.73
759.162	11.53
759.478	11.36
759.794	11.52
760.11	11.54
760.426	11.58
760.741	11.21
761.057	10.99
761.372	10.87
761.688	10.63
762.003	10.7
762.319	10.51
762.634	10.37
762.949	10.17
763.265	9.93
763.58	9.85
763.895	9.64
764.21	9.76
764.525	9.95
764.84	9.74
765.155	9.57
765.47	9.48
765.785	9.54
766.099	9.88
766.414	9.97
766.729	10.26
767.043	10.35
767.358	10.41
767.672	10.65
767.987	10.64
768.301	11
768.615	11.24
768.929	11.14
769.244	11.12
769.558	11.1
769.872	11.19
770.186	11.05
770.5	10.89
770.814	11.33
771.127	11.29
771.441	10.87
771.755	10.65
772.069	10.3
772.382	10.44
772.696	10.72
773.009	10.52
773.323	10.62
773.636	10.5
773.95	10.52
774.263	10.13
774.576	9.88
774.889	10.52
775.202	10.55
775.515	11.27
775.828	11.07
776.141	11.16
776.454	10.79
776.767	10.67
777.08	11.06
777.393	11.69
777.705	11.98
778.018	12.12
778.33	11.93
778.643	11.64
778.955	11.21
779.268	11.82
779.58	11.31
779.892	11.63
780.205	11.51
780.517	11.42
780.829	11.12
781.141	11.07
781.453	11.23
781.765	11.43
782.077	11.69
782.388	11.42
782.7	10.87
783.012	11.2
783.324	11.45
783.635	11.87
783.947	11.49
784.258	11.3
784.57	11.39
784.881	11.24
785.192	11.69
785.504	11.86
785.815	12.54
786.126	12
786.437	12.1
786.748	11.77
787.059	11.87
787.37	11.89
787.681	11.93
787.992	11.8
788.302	12.1
788.613	11.6
788.924	11.49
789.234	11.32
789.545	12.28
789.855	11.89
790.166	12.02
790.476	11.63
790.786	11.74
791.096	11.12
791.407	11.28
791.717	10.54
792.027	10.11
792.337	9.95
792.647	9.66
792.957	9.23
793.266	9.79
793.576	10.16
793.886	10.56
794.196	10.63
794.505	14.95
794.815	14.61
795.124	15.29
795.434	15.8
795.743	15.87
796.052	15.65
796.362	15.85
796.671	15.41
796.98	15.4
797.289	14.68
797.598	14.45
797.907	10.2
798.216	10.15
798.525	9.93
798.834	9.12
799.142	9.49
799.451	9.63
799.76	9.39
800.068	9.31
800.377	8.57
800.685	9.33
800.994	9.32
801.302	9.39
801.61	10.05
801.918	10.08
802.227	10.22
802.535	9.75
802.843	9.88
803.151	9.55
803.459	9.29
803.767	9.42
804.074	9.43
804.382	9.88
804.69	11.86
804.998	11.33
805.305	11.54
805.613	12.18
805.92	12.13
806.228	12.34
806.535	12.57
806.842	13.07
807.15	13.14
807.457	12.84
807.764	12.58
808.071	10.36
808.378	10.73
808.685	10.35
808.992	10.15
809.299	9.76
809.605	10.49
809.912	11.31
810.219	11.07
810.525	11.72
810.832	11.81
811.138	11.85
811.445	12.81
811.751	12.47
812.058	12.5
812.364	12.72
812.67	14
812.976	13.75
813.282	13.51
813.588	14.06
813.894	14.23
814.2	14.27
814.506	14.74
814.812	15.05
815.118	14.8
815.423	14.91
815.729	14.25
816.035	12.88
816.34	11.91
816.646	11.49
816.951	10.51
817.256	9.36
817.562	10.08
817.867	9.75
818.172	9.01
818.477	8.97
818.782	9.77
819.087	10.17
819.392	10.75
819.697	11.28
820.002	11.27
820.306	12.02
820.611	12.69
820.916	12.48
821.22	12.54
821.525	12.21
821.829	11.94
822.134	11.14
822.438	10.9
822.742	10.63
823.047	10.47
823.351	10.42
823.655	10.16
823.959	9.95
824.263	9.74
824.567	9.78
824.871	9.55
825.174	9.47
825.478	10.42
825.782	10.58
826.086	10.84
826.389	11.08
826.693	10.88
826.996	10.94
827.3	11.07
827.603	11.1
827.906	11
828.209	11.24
828.513	11.51
828.816	11.05
829.119	10.81
829.422	10.82
829.725	10.6
830.028	11.22
830.33	11.26
830.633	11.64
830.936	11.48
831.238	11.31
831.541	11.76
831.844	11.84
832.146	10.68
832.448	11.02
832.751	10.98
833.053	11.21
833.355	10.94
833.657	11.05
833.96	10.87
834.262	11.08
834.564	11.54
834.865	11.46
835.167	12.7
835.469	12.91
835.771	12.87
836.073	12.65
836.374	12.44
836.676	11.68
836.977	11.75
837.279	11.77
837.58	12.42
837.882	12.94
838.183	12.77
838.484	11.51
838.785	11.92
839.086	11.87
839.387	11.68
839.688	12.33
839.989	14
840.29	14.42
840.591	14.48
840.892	14.02
841.192	14.47
841.493	14
841.794	14.28
842.094	14.06
842.394	14.69
842.695	30.09
842.995	30.4
843.295	29.82
843.596	30.18
843.896	30.37
844.196	31.96
844.496	30.42
844.796	32.18
845.096	33.26
845.396	34.01
845.695	35.07
845.995	14.79
846.295	13.28
846.594	16.36
846.894	17.78
847.194	18.66
847.493	19.13
847.792	18.84
848.092	19.34
848.391	18.77
848.69	18.68
848.989	17.35
849.288	17.06
849.587	17.51
849.886	15.38
850.185	14.19
850.484	15.29
850.783	13.77
851.081	14.44
851.38	13.66
851.679	12.83
851.977	10.87
852.276	10.63
852.574	10.47
852.872	11.99
853.171	13.24
853.469	12.76
853.767	9.75
854.065	11.16
854.363	14.93
854.661	16.49
854.959	18.57
855.257	20.77
855.555	23.69
855.853	26.91
856.15	29.15
856.448	28.34
856.746	29.17
857.043	29.82
857.341	31.18
857.638	32.89
857.935	29.48
858.233	26.7
858.53	28.05
858.827	26.8
859.124	25.38
859.421	23.92
859.718	22.4
860.015	22.8
860.312	21.85
860.609	20.53
860.905	18.06
861.202	20.4
861.499	18.71
861.795	20.13
862.092	20.47
862.388	17.46
862.684	17.11
862.981	19.38
863.277	18.9
863.573	19.55
863.869	19.34
864.165	14.82
864.461	15.85
864.757	20.08
865.053	16.58
865.349	13.68
865.645	14.94
865.94	14.79
866.236	12.98
866.532	12.03
866.827	14.54
867.123	12.54
867.418	17.1
867.713	15.45
868.009	14.57
868.304	15.83
868.599	21.13
868.894	22.41
869.189	23.76
869.484	25.54
869.779	27.3
870.074	26.76
870.369	29.18
870.663	29.81
870.958	31.31
871.252	31.6
871.547	32.19
871.842	29.29
872.136	28.82
872.43	26.85
872.725	26.28
873.019	25.68
873.313	26.61
873.607	25.53
873.901	21.2
874.195	20.7
874.489	20.43
874.783	18.75
875.077	17.04
875.37	16.75
875.664	17.45
875.958	14.38
876.251	14.41
876.545	14.3
876.838	13.57
877.132	14.87
877.425	15.37
877.718	15.53
878.011	14.25
878.305	14.93
878.598	14.49
878.891	12.77
879.184	17.58
879.476	18.73
879.769	16.28
880.062	12.61
880.355	12.42
880.647	12.02
880.94	10.27
881.232	13.15
881.525	12.64
881.817	9.07
882.11	10.32
882.402	8.06
882.694	6.52
882.986	6.32
883.278	8.06
883.57	9.15
883.862	9.29
884.154	9.93
884.446	9.91
884.738	10.17
885.03	11.95
885.321	11.59
885.613	11.72
885.904	11.86
886.196	12.84
886.487	13.04
886.779	12.69
887.07	13.03
887.361	13.49
887.652	13.55
887.943	13.57
888.234	13.33
888.525	14.48
888.816	15.93
889.107	16.87
889.398	16.98
889.689	19.32
889.979	21.48
890.27	21.1
890.56	21.36
890.851	22.08
891.141	24.25
891.432	23.99
891.722	24.47
