Data from groin3_Reflection__2__12-20-40-609.txt Node

Date: Thu Aug 04 12:20:40 AEST 2022
User: kathy
Spectrometer: JAZA2503
Trigger mode: 0
Integration Time (sec): 2.883200E-1
Scans to average: 10
Electric dark correction enabled: true
Nonlinearity correction enabled: true
Boxcar width: 5
XAxis mode: Wavelengths
Number of Pixels in Spectrum: 2048
>>>>>Begin Spectral Data<<<<<
189.467	-219.44
189.852	-517.13
190.237	-11851.34
190.622	-812.44
191.007	-262.6
191.392	-531.88
191.777	-961.51
192.162	271.38
192.546	-51.72
192.931	-213.36
193.316	-210.51
193.701	-484.3
194.086	318.83
194.47	233.58
194.855	525.39
195.24	12080.39
195.624	710.81
196.009	-623.65
196.393	-342.51
196.778	631.3
197.163	29.36
197.547	23.16
197.931	-1.63
198.316	14.13
198.7	16.6
199.085	12.33
199.469	4.57
199.853	9.41
200.237	15.27
200.622	11.12
201.006	7.23
201.39	7.03
201.774	7.34
202.158	10.55
202.542	8.08
202.926	3.73
203.31	2.1
203.694	11.16
204.078	10.26
204.462	13.31
204.846	22.77
205.23	25.68
205.614	30.61
205.998	22.77
206.381	24.06
206.765	25.47
207.149	17.46
207.532	24
207.916	18.06
208.3	17.17
208.683	12.65
209.067	11.58
209.45	15.93
209.834	15.78
210.217	21.48
210.601	19.07
210.984	20.64
211.367	32.81
211.751	33.34
212.134	34.97
212.517	34.04
212.901	37.75
213.284	36.81
213.667	37.66
214.05	34.81
214.433	31.14
214.816	34.67
215.199	34.8
215.582	26.52
215.965	24.06
216.348	20.55
216.731	22.06
217.114	16.9
217.497	11.38
217.88	5.06
218.262	5.73
218.645	6.62
219.028	3.72
219.411	-0.23
219.793	0.11
220.176	-0.39
220.559	-1.02
220.941	-2.72
221.324	-0.17
221.706	1.14
222.089	4.31
222.471	4.46
222.853	3.23
223.236	3.79
223.618	4.4
224	6.23
224.383	4.74
224.765	7.48
225.147	8.18
225.529	6.71
225.912	6.56
226.294	5.72
226.676	5.45
227.058	5
227.44	3.79
227.822	3.24
228.204	2.75
228.586	2.96
228.968	2.13
229.349	1.69
229.731	2.21
230.113	1.66
230.495	1.56
230.877	1.41
231.258	1.69
231.64	2.01
232.022	1.8
232.403	1.58
232.785	1.88
233.166	1.91
233.548	1.96
233.929	1.65
234.311	2.18
234.692	1.88
235.073	2.16
235.455	2.39
235.836	2.52
236.217	2.8
236.599	2.77
236.98	2.3
237.361	2.32
237.742	2.48
238.123	2.65
238.504	2.57
238.885	2.8
239.266	2.47
239.647	2.06
240.028	1.98
240.409	1.99
240.79	2.09
241.171	1.93
241.552	1.84
241.933	1.77
242.313	1.64
242.694	1.77
243.075	1.94
243.456	1.99
243.836	2.09
244.217	2
244.597	2.01
244.978	1.98
245.358	2.09
245.739	2.14
246.119	2.03
246.5	2.05
246.88	1.89
247.26	1.72
247.641	1.68
248.021	1.75
248.401	1.8
248.781	1.78
249.162	1.78
249.542	1.82
249.922	1.81
250.302	1.89
250.682	1.85
251.062	1.9
251.442	1.92
251.822	1.96
252.202	1.88
252.582	1.87
252.961	1.94
253.341	1.99
253.721	1.97
254.101	1.98
254.48	2.04
254.86	1.97
255.24	2.1
255.619	2.27
255.999	2.06
256.378	2
256.758	1.97
257.137	1.89
257.517	1.83
257.896	1.72
258.276	1.62
258.655	1.47
259.034	1.45
259.414	1.35
259.793	1.25
260.172	1.35
260.551	1.28
260.93	1.23
261.309	1.18
261.688	1.13
262.068	1.14
262.447	1.15
262.825	1.11
263.204	1.03
263.583	0.97
263.962	1.09
264.341	1.08
264.72	1.09
265.099	1.12
265.477	1.13
265.856	1.11
266.235	1.09
266.613	1.05
266.992	1.09
267.371	1.16
267.749	1.35
268.128	1.23
268.506	1.24
268.884	1.29
269.263	1.24
269.641	1.21
270.02	1.19
270.398	1.13
270.776	1.13
271.154	1.18
271.533	1.19
271.911	1.03
272.289	1
272.667	0.99
273.045	0.94
273.423	0.98
273.801	0.98
274.179	0.96
274.557	1
274.935	1
275.313	0.91
275.69	0.9
276.068	0.9
276.446	0.85
276.824	0.84
277.201	0.9
277.579	0.87
277.957	0.88
278.334	0.85
278.712	0.85
279.089	0.87
279.467	0.99
279.844	1.04
280.222	1.06
280.599	1.16
280.976	1.15
281.354	1.1
281.731	1.12
282.108	1.18
282.485	1.2
282.863	1.19
283.24	1.19
283.617	1.12
283.994	1.07
284.371	1.08
284.748	1.05
285.125	1.08
285.502	1.07
285.879	1.04
286.256	1.02
286.633	1.06
287.009	1.08
287.386	1.09
287.763	1.14
288.139	1.2
288.516	1.23
288.893	1.25
289.269	1.26
289.646	1.34
290.022	1.38
290.399	1.35
290.775	1.36
291.152	1.38
291.528	1.41
291.904	1.41
292.281	1.4
292.657	1.41
293.033	1.48
293.41	1.52
293.786	1.54
294.162	1.62
294.538	1.73
294.914	1.79
295.29	1.84
295.666	1.9
296.042	1.96
296.418	2.04
296.794	2.13
297.17	2.17
297.546	2.24
297.921	2.27
298.297	2.31
298.673	2.34
299.048	2.39
299.424	2.45
299.8	2.51
300.175	2.59
300.551	2.68
300.926	2.73
301.302	2.78
301.677	2.84
302.053	2.95
302.428	2.98
302.803	3.06
303.179	3.14
303.554	3.21
303.929	3.26
304.304	3.3
304.68	3.31
305.055	3.41
305.43	3.46
305.805	3.49
306.18	3.52
306.555	3.63
306.93	3.69
307.305	3.71
307.679	3.74
308.054	3.74
308.429	3.75
308.804	3.78
309.179	3.77
309.553	3.76
309.928	3.8
310.303	3.86
310.677	3.88
311.052	3.92
311.426	3.93
311.801	3.96
312.175	4.01
312.55	4.09
312.924	4.1
313.298	4.14
313.673	4.23
314.047	4.26
314.421	4.26
314.795	4.29
315.17	4.32
315.544	4.39
315.918	4.47
316.292	4.57
316.666	4.64
317.04	4.75
317.414	4.86
317.788	4.95
318.162	5.04
318.535	5.14
318.909	5.25
319.283	5.32
319.657	5.43
320.03	5.5
320.404	5.61
320.778	5.84
321.151	6.1
321.525	6.38
321.898	6.67
322.272	6.98
322.645	7.26
323.019	7.5
323.392	7.82
323.765	8.23
324.139	8.62
324.512	9.01
324.885	9.45
325.258	9.79
325.632	10.11
326.005	10.32
326.378	10.45
326.751	10.51
327.124	10.56
327.497	10.47
327.87	10.41
328.243	10.44
328.616	10.47
328.988	10.51
329.361	10.46
329.734	10.48
330.107	10.4
330.479	10.34
330.852	10.24
331.225	10.19
331.597	10.09
331.97	9.93
332.342	9.72
332.715	9.56
333.087	9.38
333.46	9.23
333.832	9.13
334.204	9.08
334.577	9.04
334.949	9
335.321	8.91
335.693	8.81
336.065	8.7
336.438	8.62
336.81	8.51
337.182	8.41
337.554	8.33
337.926	8.19
338.298	8.03
338.669	7.86
339.041	7.75
339.413	7.68
339.785	7.59
340.157	7.52
340.528	7.44
340.9	7.33
341.272	7.24
341.643	7.15
342.015	7.15
342.386	7.21
342.758	7.31
343.129	7.36
343.501	7.43
343.872	7.45
344.243	7.45
344.615	7.39
344.986	7.37
345.357	7.33
345.728	7.3
346.099	7.3
346.471	7.26
346.842	7.2
347.213	7.17
347.584	7.14
347.955	7.11
348.326	7.02
348.697	6.95
349.067	6.93
349.438	6.94
349.809	6.97
350.18	7.06
350.55	7.1
350.921	7.14
351.292	7.2
351.662	7.22
352.033	7.22
352.403	7.23
352.774	7.27
353.144	7.27
353.515	7.26
353.885	7.26
354.255	7.22
354.626	7.23
354.996	7.21
355.366	7.18
355.736	7.19
356.107	7.19
356.477	7.19
356.847	7.15
357.217	7.15
357.587	7.16
357.957	7.18
358.327	7.2
358.697	7.23
359.066	7.25
359.436	7.28
359.806	7.29
360.176	7.33
360.546	7.37
360.915	7.39
361.285	7.4
361.654	7.42
362.024	7.43
362.393	7.42
362.763	7.43
363.132	7.45
363.502	7.47
363.871	7.48
364.24	7.5
364.61	7.53
364.979	7.58
365.348	7.61
365.717	7.64
366.087	7.69
366.456	7.77
366.825	7.79
367.194	7.85
367.563	7.9
367.932	7.95
368.301	8
368.669	8.04
369.038	8.09
369.407	8.15
369.776	8.21
370.145	8.28
370.513	8.33
370.882	8.4
371.25	8.45
371.619	8.51
371.988	8.58
372.356	8.65
372.724	8.72
373.093	8.82
373.461	8.89
373.83	8.95
374.198	9.02
374.566	9.08
374.934	9.15
375.303	9.23
375.671	9.29
376.039	9.38
376.407	9.45
376.775	9.53
377.143	9.58
377.511	9.67
377.879	9.75
378.247	9.83
378.615	9.92
378.982	10.03
379.35	10.13
379.718	10.25
380.086	10.34
380.453	10.45
380.821	10.56
381.188	10.63
381.556	10.72
381.923	10.8
382.291	10.89
382.658	10.97
383.026	11.04
383.393	11.1
383.76	11.16
384.128	11.22
384.495	11.29
384.862	11.35
385.229	11.46
385.596	11.55
385.963	11.68
386.33	11.75
386.697	11.85
387.064	11.94
387.431	12.04
387.798	12.12
388.165	12.21
388.532	12.27
388.899	12.34
389.265	12.39
389.632	12.45
389.999	12.48
390.365	12.54
390.732	12.57
391.098	12.62
391.465	12.68
391.831	12.71
392.198	12.76
392.564	12.81
392.93	12.88
393.297	12.92
393.663	12.95
394.029	13.01
394.395	13.06
394.762	13.13
395.128	13.18
395.494	13.23
395.86	13.3
396.226	13.33
396.592	13.38
396.958	13.41
397.323	13.46
397.689	13.53
398.055	13.57
398.421	13.61
398.787	13.65
399.152	13.7
399.518	13.73
399.883	13.77
400.249	13.81
400.615	13.87
400.98	13.9
401.345	13.94
401.711	13.96
402.076	13.96
402.442	13.97
402.807	13.97
403.172	13.97
403.537	13.98
403.902	14.02
404.268	14.03
404.633	14.03
404.998	14.05
405.363	14.08
405.728	14.1
406.093	14.13
406.457	14.15
406.822	14.18
407.187	14.24
407.552	14.26
407.917	14.27
408.281	14.31
408.646	14.35
409.011	14.39
409.375	14.4
409.74	14.43
410.104	14.47
410.469	14.5
410.833	14.51
411.197	14.51
411.562	14.56
411.926	14.57
412.29	14.58
412.655	14.61
413.019	14.63
413.383	14.66
413.747	14.69
414.111	14.73
414.475	14.77
414.839	14.82
415.203	14.88
415.567	14.9
415.931	14.96
416.295	15.02
416.658	15.04
417.022	15.06
417.386	15.09
417.749	15.11
418.113	15.12
418.477	15.12
418.84	15.15
419.204	15.18
419.567	15.19
419.931	15.19
420.294	15.22
420.657	15.26
421.021	15.28
421.384	15.33
421.747	15.36
422.11	15.41
422.473	15.45
422.836	15.48
423.199	15.47
423.562	15.5
423.925	15.52
424.288	15.53
424.651	15.54
425.014	15.55
425.377	15.54
425.74	15.54
426.102	15.56
426.465	15.58
426.828	15.61
427.19	15.63
427.553	15.68
427.916	15.71
428.278	15.73
428.641	15.74
429.003	15.78
429.365	15.8
429.728	15.81
430.09	15.8
430.452	15.8
430.814	15.78
431.177	15.79
431.539	15.77
431.901	15.79
432.263	15.83
432.625	15.87
432.987	15.91
433.349	15.96
433.711	16.05
434.072	16.12
434.434	16.19
434.796	16.28
435.158	16.37
435.519	16.46
435.881	16.52
436.243	16.57
436.604	16.59
436.966	16.63
437.327	16.67
437.689	16.64
438.05	16.66
438.411	16.68
438.773	16.71
439.134	16.74
439.495	16.76
439.856	16.78
440.218	16.83
440.579	16.89
440.94	16.92
441.301	16.99
441.662	17.06
442.023	17.15
442.384	17.21
442.745	17.27
443.105	17.29
443.466	17.33
443.827	17.38
444.188	17.4
444.548	17.42
444.909	17.49
445.269	17.5
445.63	17.55
445.99	17.55
446.351	17.59
446.711	17.58
447.072	17.65
447.432	17.69
447.792	17.72
448.153	17.76
448.513	17.78
448.873	17.82
449.233	17.82
449.593	17.82
449.953	17.84
450.313	17.84
450.673	17.87
451.033	17.88
451.393	17.88
451.753	17.88
452.113	18.41
452.472	18.4
452.832	18.35
453.192	18.32
453.551	18.31
453.911	18.3
454.271	18.28
454.63	18.28
454.989	18.26
455.349	18.28
455.708	18.28
456.068	18.01
456.427	18.02
456.786	18.07
457.145	18.12
457.505	18.17
457.864	18.23
458.223	18.31
458.582	18.39
458.941	18.5
459.3	18.56
459.659	18.62
460.018	18.68
460.376	18.72
460.735	18.74
461.094	18.77
461.453	18.79
461.811	18.8
462.17	18.79
462.529	18.8
462.887	18.77
463.246	18.78
463.604	18.8
463.963	18.81
464.321	18.95
464.679	18.98
465.038	19.01
465.396	19.05
465.754	19.08
466.112	19.15
466.47	19.2
466.828	19.27
467.186	19.31
467.544	19.36
467.902	19.41
468.26	19.33
468.618	19.36
468.976	19.37
469.334	19.4
469.692	19.43
470.049	19.42
470.407	19.4
470.765	19.38
471.122	19.41
471.48	19.43
471.837	19.48
472.195	19.53
472.552	19.61
472.909	19.69
473.267	19.74
473.624	19.8
473.981	19.86
474.338	19.93
474.696	19.98
475.053	20.02
475.41	20.07
475.767	20.1
476.124	20.13
476.481	20.17
476.838	20.21
477.194	20.26
477.551	20.3
477.908	20.33
478.265	20.37
478.621	20.41
478.978	20.44
479.335	20.49
479.691	20.54
480.048	20.59
480.404	20.61
480.761	20.67
481.117	20.71
481.473	20.72
481.83	20.76
482.186	20.79
482.542	20.83
482.898	20.89
483.255	20.94
483.611	20.99
483.967	21.03
484.323	21.08
484.679	21.09
485.035	21.14
485.39	21.21
485.746	21.25
486.102	21.3
486.458	21.34
486.814	21.37
487.169	21.4
487.525	21.43
487.88	21.45
488.236	21.47
488.591	21.51
488.947	21.49
489.302	21.5
489.658	21.52
490.013	21.54
490.368	21.55
490.723	21.56
491.079	21.56
491.434	21.56
491.789	21.58
492.144	21.6
492.499	21.63
492.854	21.66
493.209	21.69
493.564	21.71
493.919	21.74
494.273	21.77
494.628	21.79
494.983	21.8
495.338	21.81
495.692	21.82
496.047	21.81
496.401	21.79
496.756	21.76
497.11	21.73
497.465	21.69
497.819	21.67
498.173	21.65
498.528	21.64
498.882	21.66
499.236	21.69
499.59	21.7
499.944	21.73
500.298	21.76
500.652	21.79
501.006	21.82
501.36	21.86
501.714	21.86
502.068	21.86
502.422	21.87
502.776	21.87
503.129	21.88
503.483	21.91
503.837	21.94
504.19	21.97
504.544	21.99
504.897	21.98
505.251	21.96
505.604	21.94
505.958	21.92
506.311	21.88
506.664	21.85
507.017	21.78
507.371	21.69
507.724	21.59
508.077	21.5
508.43	21.43
508.783	21.39
509.136	21.35
509.489	21.33
509.842	21.31
510.195	21.26
510.547	21.23
510.9	21.19
511.253	21.17
511.606	21.13
511.958	21.06
512.311	21
512.663	20.92
513.016	20.83
513.368	20.75
513.721	20.71
514.073	20.67
514.425	20.61
514.778	20.58
515.13	20.53
515.482	20.49
515.834	20.47
516.186	20.46
516.538	20.46
516.89	20.46
517.242	20.47
517.594	20.46
517.946	20.44
518.298	20.44
518.65	20.42
519.001	20.4
519.353	20.37
519.705	20.31
520.056	20.26
520.408	20.18
520.759	20.13
521.111	20.04
521.462	19.99
521.814	19.96
522.165	19.9
522.516	19.85
522.868	19.81
523.219	19.77
523.57	19.73
523.921	19.69
524.272	19.65
524.623	19.56
524.974	19.5
525.325	19.41
525.676	19.31
526.027	19.25
526.378	19.18
526.728	19.12
527.079	19.06
527.43	19.02
527.78	18.97
528.131	18.92
528.481	18.88
528.832	18.83
529.182	18.8
529.533	18.76
529.883	18.73
530.233	18.66
530.584	18.6
530.934	18.54
531.284	18.45
531.634	18.36
531.984	18.31
532.334	18.26
532.684	18.22
533.034	18.15
533.384	18.12
533.734	18.07
534.084	18
534.434	17.94
534.783	17.91
535.133	17.83
535.483	17.8
535.832	17.75
536.182	17.7
536.531	17.63
536.881	17.56
537.23	17.48
537.58	17.41
537.929	17.37
538.278	18.85
538.628	18.77
538.977	18.74
539.326	18.69
539.675	18.59
540.024	18.54
540.373	18.49
540.722	18.42
541.071	18.39
541.42	18.35
541.769	18.31
542.117	16.76
542.466	16.71
542.815	16.66
543.163	16.58
543.512	16.56
543.861	16.5
544.209	16.47
544.558	16.44
544.906	16.36
545.254	16.3
545.603	16.26
545.951	16.22
546.299	16.23
546.647	16.23
546.996	16.23
547.344	16.18
547.692	16.13
548.04	16.09
548.388	16.07
548.736	16.03
549.083	16.01
549.431	15.95
549.779	15.87
550.127	15.77
550.475	15.68
550.822	15.61
551.17	15.57
551.517	15.54
551.865	15.49
552.212	15.43
552.56	15.43
552.907	15.34
553.254	15.29
553.602	15.25
553.949	15.21
554.296	15.16
554.643	15.1
554.99	15.06
555.337	14.99
555.684	14.91
556.031	14.84
556.378	14.73
556.725	14.7
557.072	14.67
557.419	14.63
557.765	14.55
558.112	14.5
558.459	14.43
558.805	14.36
559.152	14.31
559.498	14.26
559.845	14.19
560.191	14.14
560.538	14.08
560.884	14.02
561.23	13.97
561.576	13.89
561.923	13.79
562.269	13.74
562.615	13.71
562.961	13.69
563.307	13.67
563.653	13.68
563.999	13.61
564.344	13.58
564.69	13.55
565.036	13.51
565.382	13.52
565.727	13.53
566.073	13.47
566.419	13.42
566.764	13.34
567.11	13.29
567.455	13.2
567.8	13.2
568.146	13.12
568.491	13.05
568.836	13.02
569.181	12.94
569.527	12.89
569.872	12.88
570.217	12.82
570.562	12.79
570.907	12.74
571.252	12.73
571.597	12.69
571.941	12.67
572.286	12.64
572.631	12.56
572.976	12.56
573.32	12.53
573.665	12.52
574.009	12.52
574.354	12.49
574.698	12.49
575.043	12.44
575.387	12.42
575.731	12.39
576.076	12.37
576.42	12.36
576.764	12.33
577.108	12.33
577.452	12.28
577.796	12.27
578.14	12.22
578.484	12.2
578.828	12.19
579.172	12.17
579.516	12.1
579.86	12.08
580.203	12.07
580.547	12.05
580.891	12.04
581.234	11.98
581.578	11.95
581.921	11.92
582.264	11.88
582.608	11.88
582.951	11.88
583.294	11.85
583.638	11.85
583.981	11.81
584.324	11.78
584.667	11.75
585.01	11.72
585.353	11.7
585.696	11.69
586.039	11.69
586.382	11.67
586.725	11.64
587.067	11.64
587.41	11.65
587.753	11.61
588.095	11.6
588.438	11.6
588.781	11.6
589.123	11.58
589.465	11.56
589.808	11.54
590.15	11.5
590.492	11.47
590.835	11.45
591.177	11.41
591.519	11.4
591.861	11.39
592.203	11.37
592.545	11.37
592.887	11.36
593.229	11.35
593.571	11.3
593.913	11.28
594.254	11.26
594.596	11.24
594.938	11.2
595.279	11.18
595.621	11.16
595.963	11.15
596.304	11.14
596.645	11.14
596.987	11.14
597.328	11.14
597.669	11.12
598.011	11.12
598.352	11.12
598.693	11.11
599.034	11.09
599.375	11.08
599.716	11.07
600.057	11.06
600.398	11.02
600.739	11.01
601.08	11
601.42	11
601.761	10.99
602.102	10.97
602.442	10.95
602.783	10.94
603.123	10.92
603.464	10.89
603.804	10.88
604.145	10.86
604.485	10.85
604.825	10.85
605.166	10.79
605.506	10.79
605.846	10.77
606.186	10.74
606.526	10.74
606.866	10.73
607.206	10.71
607.546	10.68
607.886	10.67
608.225	10.62
608.565	10.61
608.905	10.6
609.245	10.57
609.584	10.56
609.924	10.55
610.263	10.52
610.603	10.5
610.942	10.49
611.281	10.44
611.621	10.35
611.96	10.36
612.299	10.35
612.638	10.35
612.978	10.3
613.317	10.27
613.656	10.25
613.995	10.24
614.334	10.21
614.672	10.18
615.011	10.15
615.35	10.14
615.689	10.14
616.027	10.11
616.366	10.09
616.705	10.07
617.043	10.05
617.382	10.01
617.72	10
618.059	9.97
618.397	9.97
618.735	9.97
619.073	9.97
619.412	9.97
619.75	9.96
620.088	9.96
620.426	9.95
620.764	9.93
621.102	9.92
621.44	9.91
621.778	9.89
622.115	9.87
622.453	9.86
622.791	9.86
623.129	9.84
623.466	9.83
623.804	9.78
624.141	9.78
624.479	9.76
624.816	9.74
625.153	9.74
625.491	9.73
625.828	9.72
626.165	9.71
626.502	9.71
626.84	9.62
627.177	9.58
627.514	9.56
627.851	9.53
628.188	9.51
628.524	9.49
628.861	9.48
629.198	9.48
629.535	9.48
629.871	9.43
630.208	9.4
630.545	9.42
630.881	9.39
631.218	9.39
631.554	9.35
631.89	9.31
632.227	9.27
632.563	9.23
632.899	9.22
633.235	9.2
633.572	9.19
633.908	9.18
634.244	9.17
634.58	9.1
634.916	9.08
635.251	9.09
635.587	9.07
635.923	9.07
636.259	9.06
636.595	9
636.93	8.99
637.266	8.99
637.601	8.96
637.937	8.91
638.272	8.93
638.608	8.9
638.943	8.83
639.278	8.85
639.613	8.8
639.949	8.79
640.284	8.78
640.619	8.78
640.954	8.7
641.289	8.67
641.624	8.64
641.959	8.61
642.294	8.56
642.628	8.57
642.963	8.52
643.298	8.5
643.632	8.56
643.967	8.54
644.302	8.48
644.636	8.49
644.971	8.5
645.305	8.47
645.639	8.51
645.974	8.48
646.308	8.46
646.642	8.45
646.976	8.44
647.31	8.34
647.644	8.29
647.978	8.28
648.312	8.25
648.646	8.2
648.98	8.21
649.314	8.14
649.647	8.11
649.981	8.07
650.315	8.03
650.648	7.99
650.982	7.94
651.315	7.94
651.649	7.91
651.982	7.85
652.316	7.83
652.649	7.81
652.982	7.8
653.315	7.83
653.648	7.85
653.982	7.88
654.315	7.89
654.648	7.88
654.981	7.82
655.313	7.84
655.646	7.91
655.979	7.98
656.312	7.94
656.644	7.94
656.977	7.9
657.31	7.79
657.642	7.74
657.975	7.74
658.307	7.72
658.64	7.74
658.972	7.76
659.304	7.7
659.636	7.63
659.969	7.6
660.301	7.6
660.633	7.58
660.965	7.63
661.297	7.6
661.629	7.58
661.961	7.53
662.292	7.51
662.624	7.46
662.956	7.46
663.288	7.51
663.619	7.55
663.951	7.5
664.282	7.49
664.614	7.45
664.945	7.45
665.276	7.4
665.608	7.41
665.939	7.4
666.27	7.36
666.601	7.25
666.933	7.16
667.264	7.14
667.595	7.16
667.926	7.2
668.256	7.17
668.587	7.1
668.918	7.15
669.249	7.19
669.58	7.17
669.91	7.13
670.241	7.21
670.571	7.25
670.902	7.23
671.232	7.15
671.563	7.1
671.893	7.14
672.223	7.18
672.554	7.17
672.884	7.26
673.214	7.31
673.544	7.41
673.874	7.37
674.204	7.34
674.534	7.27
674.864	7.31
675.194	7.31
675.524	7.32
675.853	7.3
676.183	7.24
676.513	7.08
676.842	7.01
677.172	6.94
677.501	6.98
677.831	6.93
678.16	6.98
678.489	7.01
678.819	7.02
679.148	6.98
679.477	6.95
679.806	6.93
680.135	6.88
680.464	6.88
680.793	6.89
681.122	6.85
681.451	6.8
681.78	6.77
682.108	6.71
682.437	6.66
682.766	6.63
683.094	6.67
683.423	6.63
683.751	6.71
684.08	6.76
684.408	6.67
684.737	6.67
685.065	6.68
685.393	6.67
685.721	6.74
686.049	6.77
686.377	6.77
686.705	6.73
687.033	6.79
687.361	6.73
687.689	6.76
688.017	6.88
688.345	6.88
688.673	6.95
689.0	6.94
689.328	6.83
689.655	6.76
689.983	6.81
690.31	6.84
690.638	6.77
690.965	6.71
691.292	6.63
691.62	6.56
691.947	6.53
692.274	6.47
692.601	6.48
692.928	6.5
693.255	6.5
693.582	6.43
693.909	6.39
694.236	6.5
694.562	6.55
694.889	6.6
695.216	6.63
695.542	6.64
695.869	6.63
696.196	6.61
696.522	6.54
696.848	6.54
697.175	6.53
697.501	6.57
697.827	6.56
698.154	6.58
698.48	6.52
698.806	6.47
699.132	6.39
699.458	6.44
699.784	6.47
700.11	6.46
700.435	6.48
700.761	6.47
701.087	6.37
701.413	6.34
701.738	6.32
702.064	6.3
702.389	6.23
702.715	6.29
703.04	6.3
703.366	6.29
703.691	6.38
704.016	6.37
704.341	6.39
704.666	6.53
704.992	6.5
705.317	6.5
705.642	6.51
705.967	6.58
706.291	6.59
706.616	6.66
706.941	6.65
707.266	6.65
707.59	6.73
707.915	6.81
708.24	6.62
708.564	6.61
708.889	6.66
709.213	6.66
709.537	6.6
709.862	6.57
710.186	6.35
710.51	6.34
710.834	6.33
711.158	6.33
711.482	6.22
711.806	6.32
712.13	6.37
712.454	6.28
712.778	6.28
713.102	6.31
713.426	6.22
713.749	6.22
714.073	6.29
714.396	6.22
714.72	6.19
715.043	6.13
715.367	6.11
715.69	6.13
716.013	6.11
716.337	6.05
716.66	6.2
716.983	6.5
717.306	6.6
717.629	6.51
717.952	6.54
718.275	6.6
718.598	6.62
718.921	6.62
719.243	6.69
719.566	6.89
719.889	7.05
720.211	7
720.534	6.81
720.856	6.82
721.179	6.94
721.501	6.97
721.823	6.71
722.146	6.86
722.468	6.85
722.79	6.65
723.112	6.49
723.434	6.44
723.756	6.32
724.078	6.24
724.4	6.17
724.722	6.17
725.044	6
725.366	5.91
725.687	5.72
726.009	5.62
726.33	5.53
726.652	5.65
726.973	5.61
727.295	5.62
727.616	5.66
727.938	5.88
728.259	5.85
728.58	5.8
728.901	6.16
729.222	6.26
729.543	6.4
729.864	6.55
730.185	6.23
730.506	6.19
730.827	6.26
731.148	6.12
731.468	5.84
731.789	5.82
732.11	5.91
732.43	5.75
732.751	5.74
733.071	5.66
733.392	5.61
733.712	5.69
734.032	5.76
734.352	5.72
734.673	5.67
734.993	5.75
735.313	5.63
735.633	6.19
735.953	6.25
736.273	6.29
736.593	6.41
736.912	6.49
737.232	6.58
737.552	6.51
737.871	6.5
738.191	6.83
738.51	7.01
738.83	7.34
739.149	6.88
739.469	7.01
739.788	6.77
740.107	6.6
740.426	6.58
740.746	6.64
741.065	6.52
741.384	6.39
741.703	6.07
742.022	5.73
742.341	5.42
742.659	5.43
742.978	5.29
743.297	5.59
743.615	5.66
743.934	5.63
744.253	5.65
744.571	5.95
744.89	6.22
745.208	6.4
745.526	6.7
745.845	6.7
746.163	6.55
746.481	6.76
746.799	6.76
747.117	6.98
747.435	7.14
747.753	7.24
748.071	7.07
748.389	6.9
748.706	6.71
749.024	6.57
749.342	6.78
749.659	7.06
749.977	6.68
750.295	6.73
750.612	6.5
750.929	6.24
751.247	6.16
751.564	6.16
751.881	6.12
752.198	6.46
752.516	6.47
752.833	6.15
753.15	5.87
753.467	5.77
753.783	5.52
754.1	5.74
754.417	5.88
754.734	6.03
755.05	6.15
755.367	6.19
755.684	6.13
756.0	6.4
756.317	6.54
756.633	6.76
756.949	7.18
757.266	7.25
757.582	7.02
757.898	6.93
758.214	6.8
758.53	6.73
758.846	6.77
759.162	6.56
759.478	6.16
759.794	6.18
760.11	5.95
760.426	5.71
760.741	5.72
761.057	5.57
761.372	5.33
761.688	5.31
762.003	5.33
762.319	5.3
762.634	5.44
762.949	5.49
763.265	5.55
763.58	5.75
763.895	5.83
764.21	5.81
764.525	5.75
764.84	6.07
765.155	6.13
765.47	6.19
765.785	6.25
766.099	6.33
766.414	6.34
766.729	6.17
767.043	6.06
767.358	5.96
767.672	5.94
767.987	6.09
768.301	6.22
768.615	6.12
768.929	5.76
769.244	5.74
769.558	5.93
769.872	6
770.186	6.02
770.5	5.87
770.814	5.68
771.127	5.78
771.441	5.96
771.755	5.82
772.069	5.62
772.382	5.78
772.696	5.82
773.009	5.65
773.323	5.74
773.636	5.95
773.95	6.4
774.263	6.89
774.576	6.67
774.889	6.61
775.202	6.35
775.515	6.55
775.828	6.61
776.141	6.64
776.454	6.34
776.767	6.11
777.08	5.81
777.393	5.35
777.705	4.97
778.018	4.93
778.33	4.73
778.643	4.93
778.955	4.64
779.268	4.53
779.58	4.38
779.892	4.5
780.205	4.43
780.517	4.77
780.829	4.95
781.141	5.47
781.453	5.73
781.765	6.39
782.077	6.18
782.388	6.43
782.7	6.61
783.012	7.15
783.324	6.91
783.635	7.38
783.947	7.21
784.258	6.64
784.57	6.1
784.881	5.62
785.192	4.77
785.504	4.65
785.815	4.09
786.126	4.12
786.437	3.89
786.748	4.24
787.059	3.93
787.37	3.99
787.681	4.7
787.992	4.81
788.302	5.64
788.613	5.87
788.924	6.18
789.234	7.32
789.545	7.61
789.855	7.47
790.166	7.18
790.476	7.32
790.786	7.33
791.096	6.87
791.407	7.19
791.717	7.06
792.027	7.28
792.337	7.04
792.647	6.76
792.957	6.83
793.266	6.85
793.576	7.15
793.886	6.89
794.196	7.17
794.505	12.1
794.815	11.88
795.124	11.85
795.434	11.9
795.743	11.39
796.052	11.48
796.362	10.82
796.671	10.39
796.98	10.47
797.289	10.51
797.598	9.87
797.907	5.37
798.216	5.52
798.525	5.44
798.834	5.53
799.142	6.25
799.451	6.04
799.76	6.5
800.068	7.11
800.377	7.32
800.685	8.29
800.994	8.89
801.302	8.85
801.61	8.76
801.918	8.49
802.227	8.26
802.535	8.48
802.843	7.87
803.151	7.14
803.459	6.66
803.767	6.24
804.074	5.11
804.382	5.05
804.69	6.85
804.998	6.98
805.305	7.26
805.613	7.2
805.92	7.04
806.228	7.72
806.535	7.72
806.842	8.18
807.15	8.49
807.457	9.03
807.764	8.68
808.071	6.95
808.378	7.15
808.685	7.58
808.992	7.72
809.299	8.25
809.605	7.98
809.912	9.16
810.219	8.95
810.525	8.89
810.832	8.47
811.138	8.51
811.445	8.75
811.751	8.07
812.058	7.33
812.364	7.18
812.67	5.81
812.976	5.2
813.282	4.18
813.588	3.65
813.894	3.85
814.2	3.72
814.506	3.83
814.812	3.37
815.118	3.9
815.423	3.84
815.729	4.51
816.035	4.94
816.34	6.02
816.646	7.03
816.951	7.87
817.256	7.94
817.562	8.39
817.867	8.25
818.172	8.24
818.477	8.08
818.782	7.98
819.087	8.21
819.392	8.04
819.697	7.38
820.002	6.42
820.306	5.95
820.611	5.6
820.916	5.59
821.22	6.18
821.525	6.13
821.829	6.2
822.134	6.53
822.438	6.31
822.742	6.4
823.047	6.42
823.351	6.62
823.655	6.67
823.959	6.63
824.263	6.47
824.567	6.6
824.871	6.75
825.174	6.95
825.478	8.34
825.782	8.53
826.086	8.75
826.389	9.06
826.693	9.11
826.996	9.09
827.3	9.28
827.603	9.53
827.906	9.4
828.209	9.67
828.513	9.68
828.816	7.84
829.119	7.76
829.422	7.87
829.725	7.51
830.028	7.45
830.33	7.32
830.633	7.38
830.936	7.3
831.238	7.14
831.541	6.67
831.844	6.4
832.146	6.63
832.448	6.72
832.751	6.27
833.053	6.77
833.355	7.46
833.657	7.4
833.96	7.31
834.262	7.16
834.564	7.3
834.865	7.51
835.167	8.86
835.469	8.86
835.771	8.26
836.073	7.91
836.374	7.41
836.676	6.28
836.977	6.86
837.279	7.08
837.58	7.49
837.882	7.59
838.183	7.76
838.484	5.67
838.785	5.37
839.086	6.14
839.387	7.04
839.688	7.65
839.989	8.8
840.29	8.79
840.591	8.99
840.892	8.73
841.192	9.13
841.493	9.14
841.794	11.09
842.094	11.55
842.394	11.32
842.695	11.32
842.995	11.32
843.295	11.32
843.596	11.32
843.896	11.32
844.196	11.32
844.496	11.32
844.796	11.32
845.096	11.32
845.396	11.32
845.695	11.32
845.995	6.02
846.295	9.25
846.594	10.76
846.894	10.72
847.194	9.73
847.493	9.67
847.792	8.98
848.092	8.58
848.391	6.82
848.69	8.67
848.989	7.9
849.288	7
849.587	6.31
849.886	4.95
850.185	4.56
850.484	6.27
850.783	7.68
851.081	9.17
851.38	9.87
851.679	11.85
851.977	12.7
852.276	14.11
852.574	16.07
852.872	17.2
853.171	16.91
853.469	16.38
853.767	15.5
854.065	14.02
854.363	12.61
854.661	14.85
854.959	13.96
855.257	10.09
855.555	8.6
855.853	8.22
856.15	9.98
856.448	11.2
856.746	13.87
857.043	14.06
857.341	19.12
857.638	25.6
857.935	23.11
858.233	23.3
858.53	26.92
858.827	27.64
859.124	26.1
859.421	23.62
859.718	24.38
860.015	23.35
860.312	22.88
860.609	18.01
860.905	13.35
861.202	13.12
861.499	12.67
861.795	12.39
862.092	10.68
862.388	9.68
862.684	8.28
862.981	7.22
863.277	3.05
863.573	3.55
863.869	5.42
864.165	3.71
864.461	5.97
864.757	5.43
865.053	3.23
865.349	3.37
865.645	3.11
865.94	4.49
866.236	2.86
866.532	5.05
866.827	4.21
867.123	4
867.418	4.45
867.713	3.78
868.009	4.18
868.304	6.61
868.599	7.31
868.894	8.37
869.189	9.59
869.484	12.53
869.779	13.86
870.074	15.7
870.369	16.3
870.663	16.09
870.958	13.59
871.252	11.77
871.547	10.8
871.842	11.4
872.136	10.86
872.43	9.46
872.725	8.86
873.019	8.91
873.313	11.12
873.607	8.51
873.901	7.97
874.195	8.82
874.489	10.03
874.783	9.32
875.077	7.84
875.37	12.1
875.664	13.25
875.958	14.49
876.251	15.26
876.545	14.45
876.838	15.89
877.132	17.47
877.425	17.91
877.718	17.33
878.011	17.59
878.305	19.17
878.598	16.62
878.891	15.56
879.184	14.78
879.476	15.19
879.769	12.29
880.062	10.26
880.355	6.22
880.647	8.01
880.94	7.21
881.232	5.09
881.525	3.79
881.817	2.5
882.11	3.23
882.402	3.69
882.694	1.08
882.986	2.13
883.278	3.71
883.57	4.93
883.862	4.77
884.154	5.59
884.446	6.01
884.738	6.46
885.03	6.98
885.321	6.97
885.613	6.63
885.904	7.51
886.196	7.73
886.487	8.12
886.779	8.24
887.07	8.63
887.361	8.67
887.652	9.36
887.943	9.43
888.234	9.55
888.525	9.52
888.816	9.91
889.107	10.74
889.398	11.72
889.689	11.98
889.979	13.51
890.27	13.32
890.56	14.37
890.851	14.69
891.141	15.47
891.432	16.08
891.722	18.63
