Data from groin1_Reflection__0__12-08-22-780.txt Node

Date: Thu Aug 04 12:08:22 AEST 2022
User: kathy
Spectrometer: JAZA2503
Trigger mode: 0
Integration Time (sec): 2.883200E-1
Scans to average: 10
Electric dark correction enabled: true
Nonlinearity correction enabled: true
Boxcar width: 5
XAxis mode: Wavelengths
Number of Pixels in Spectrum: 2048
>>>>>Begin Spectral Data<<<<<
189.467	-173.35
189.852	-441.62
190.237	-10224.23
190.622	-574.31
191.007	-258.17
191.392	-429.23
191.777	-728.59
192.162	149.44
192.546	-13.17
192.931	-88.01
193.316	-132.45
193.701	-323.36
194.086	328.51
194.47	259.77
194.855	542.86
195.24	19183.56
195.624	1020.57
196.009	-1213.26
196.393	-493.33
196.778	2375.7
197.163	381.82
197.547	141.32
197.931	55.29
198.316	32.73
198.7	26.07
199.085	26.09
199.469	24.24
199.853	26.28
200.237	32.01
200.622	32.13
201.006	26.48
201.39	24.38
201.774	27.44
202.158	31.27
202.542	34.66
202.926	28.31
203.31	21.2
203.694	21.47
204.078	13.14
204.462	7.05
204.846	6.56
205.23	8.21
205.614	5.89
205.998	-0.23
206.381	7.04
206.765	3.33
207.149	7.04
207.532	12.37
207.916	12.75
208.3	20.85
208.683	25.33
209.067	25.79
209.45	28.16
209.834	29.12
210.217	34.31
210.601	33.32
210.984	36.2
211.367	38.71
211.751	38.93
212.134	33.46
212.517	28.45
212.901	29.9
213.284	31.32
213.667	34.77
214.05	39.69
214.433	42.2
214.816	43.68
215.199	45.61
215.582	46.27
215.965	46.2
216.348	50.36
216.731	57.93
217.114	53.48
217.497	46.95
217.88	43.57
218.262	37.27
218.645	35.12
219.028	32.38
219.411	26.3
219.793	23.37
220.176	22.92
220.559	19.8
220.941	13.83
221.324	13.18
221.706	13.62
222.089	13.66
222.471	14.08
222.853	11.61
223.236	11.8
223.618	11.93
224	12.93
224.383	9.47
224.765	11.48
225.147	10.89
225.529	10.75
225.912	10.64
226.294	9.96
226.676	8.54
227.058	7.29
227.44	5.61
227.822	4.87
228.204	4.14
228.586	4.68
228.968	3.94
229.349	4.12
229.731	4.1
230.113	3.76
230.495	3.64
230.877	3.62
231.258	3.79
231.64	4.09
232.022	3.85
232.403	3.8
232.785	4.02
233.166	3.96
233.548	3.8
233.929	3.47
234.311	3.64
234.692	3.16
235.073	3.21
235.455	3.39
235.836	3.26
236.217	3.79
236.599	3.27
236.98	2.66
237.361	2.5
237.742	2.22
238.123	2.51
238.504	2.77
238.885	2.77
239.266	2.74
239.647	2.4
240.028	2.54
240.409	2.24
240.79	2.48
241.171	2.55
241.552	2.42
241.933	2.4
242.313	2.28
242.694	2.12
243.075	2.22
243.456	2.06
243.836	2.23
244.217	2.19
244.597	2.24
244.978	2.29
245.358	2.37
245.739	2.42
246.119	2.35
246.5	2.28
246.88	2.14
247.26	2.07
247.641	2.09
248.021	2.03
248.401	1.98
248.781	1.99
249.162	1.91
249.542	1.84
249.922	1.85
250.302	1.93
250.682	1.86
251.062	1.94
251.442	1.94
251.822	2.01
252.202	2.11
252.582	2.04
252.961	2.07
253.341	2.24
253.721	2.22
254.101	2.13
254.48	2.1
254.86	2.18
255.24	2.3
255.619	2.45
255.999	2.26
256.378	2.14
256.758	2.18
257.137	2.08
257.517	1.9
257.896	1.88
258.276	1.86
258.655	1.73
259.034	1.6
259.414	1.46
259.793	1.36
260.172	1.41
260.551	1.33
260.93	1.31
261.309	1.27
261.688	1.31
262.068	1.28
262.447	1.32
262.825	1.31
263.204	1.32
263.583	1.33
263.962	1.41
264.341	1.39
264.72	1.46
265.099	1.46
265.477	1.49
265.856	1.35
266.235	1.35
266.613	1.26
266.992	1.28
267.371	1.31
267.749	1.44
268.128	1.29
268.506	1.33
268.884	1.27
269.263	1.22
269.641	1.19
270.02	1.2
270.398	1.17
270.776	1.24
271.154	1.27
271.533	1.27
271.911	1.18
272.289	1.22
272.667	1.24
273.045	1.19
273.423	1.25
273.801	1.23
274.179	1.25
274.557	1.3
274.935	1.26
275.313	1.24
275.69	1.27
276.068	1.26
276.446	1.26
276.824	1.2
277.201	1.31
277.579	1.28
277.957	1.33
278.334	1.3
278.712	1.24
279.089	1.19
279.467	1.28
279.844	1.29
280.222	1.27
280.599	1.3
280.976	1.3
281.354	1.21
281.731	1.24
282.108	1.27
282.485	1.26
282.863	1.3
283.24	1.29
283.617	1.21
283.994	1.21
284.371	1.21
284.748	1.19
285.125	1.21
285.502	1.24
285.879	1.24
286.256	1.22
286.633	1.31
287.009	1.33
287.386	1.4
287.763	1.5
288.139	1.54
288.516	1.56
288.893	1.58
289.269	1.6
289.646	1.7
290.022	1.75
290.399	1.77
290.775	1.77
291.152	1.79
291.528	1.78
291.904	1.78
292.281	1.79
292.657	1.84
293.033	1.92
293.41	1.99
293.786	2.01
294.162	2.03
294.538	2.14
294.914	2.2
295.29	2.22
295.666	2.29
296.042	2.34
296.418	2.39
296.794	2.47
297.17	2.51
297.546	2.56
297.921	2.59
298.297	2.65
298.673	2.7
299.048	2.74
299.424	2.82
299.8	2.88
300.175	2.98
300.551	3.04
300.926	3.12
301.302	3.2
301.677	3.25
302.053	3.34
302.428	3.36
302.803	3.41
303.179	3.49
303.554	3.56
303.929	3.64
304.304	3.65
304.68	3.69
305.055	3.76
305.43	3.79
305.805	3.8
306.18	3.86
306.555	3.94
306.93	3.99
307.305	4.02
307.679	4.06
308.054	4.09
308.429	4.14
308.804	4.19
309.179	4.21
309.553	4.26
309.928	4.32
310.303	4.33
310.677	4.37
311.052	4.4
311.426	4.39
311.801	4.41
312.175	4.43
312.55	4.48
312.924	4.51
313.298	4.51
313.673	4.54
314.047	4.57
314.421	4.6
314.795	4.67
315.17	4.72
315.544	4.82
315.918	4.87
316.292	4.95
316.666	5.03
317.04	5.11
317.414	5.23
317.788	5.33
318.162	5.41
318.535	5.53
318.909	5.62
319.283	5.72
319.657	5.88
320.03	6.02
320.404	6.2
320.778	6.54
321.151	7.02
321.525	7.6
321.898	8.26
322.272	8.97
322.645	9.68
323.019	10.47
323.392	11.35
323.765	12.33
324.139	13.33
324.512	14.37
324.885	15.51
325.258	16.57
325.632	17.54
326.005	18.4
326.378	19.18
326.751	19.72
327.124	20.18
327.497	20.48
327.87	20.78
328.243	21
328.616	21.22
328.988	21.48
329.361	21.55
329.734	21.57
330.107	21.48
330.479	21.45
330.852	21.34
331.225	21.25
331.597	21.1
331.97	20.93
332.342	20.67
332.715	20.46
333.087	20.22
333.46	19.98
333.832	19.88
334.204	19.77
334.577	19.72
334.949	19.7
335.321	19.59
335.693	19.48
336.065	19.3
336.438	19.12
336.81	18.93
337.182	18.78
337.554	18.61
337.926	18.41
338.298	18.24
338.669	18.04
339.041	17.96
339.413	17.89
339.785	17.84
340.157	17.76
340.528	17.7
340.9	17.59
341.272	17.52
341.643	17.48
342.015	17.48
342.386	17.61
342.758	17.78
343.129	17.95
343.501	18.06
343.872	18.16
344.243	18.19
344.615	18.14
344.986	18.1
345.357	18.09
345.728	18.11
346.099	18.07
346.471	18.04
346.842	18
347.213	17.99
347.584	17.99
347.955	17.97
348.326	17.97
348.697	17.97
349.067	17.98
349.438	18.04
349.809	18.13
350.18	18.24
350.55	18.35
350.921	18.45
351.292	18.55
351.662	18.64
352.033	18.73
352.403	18.8
352.774	18.86
353.144	18.89
353.515	18.94
353.885	18.97
354.255	18.98
354.626	18.98
354.996	18.98
355.366	18.98
355.736	18.98
356.107	18.98
356.477	19.02
356.847	19.01
357.217	19.04
357.587	19.06
357.957	19.11
358.327	19.15
358.697	19.19
359.066	19.21
359.436	19.27
359.806	19.3
360.176	19.36
360.546	19.39
360.915	19.44
361.285	19.48
361.654	19.54
362.024	19.56
362.393	19.61
362.763	19.64
363.132	19.67
363.502	19.74
363.871	19.77
364.24	19.79
364.61	19.85
364.979	19.91
365.348	19.99
365.717	20.05
366.087	20.13
366.456	20.21
366.825	20.31
367.194	20.43
367.563	20.51
367.932	20.65
368.301	20.77
368.669	20.89
369.038	21
369.407	21.11
369.776	21.2
370.145	21.33
370.513	21.41
370.882	21.53
371.25	21.61
371.619	21.75
371.988	21.86
372.356	21.99
372.724	22.1
373.093	22.26
373.461	22.37
373.83	22.49
374.198	22.63
374.566	22.79
374.934	22.92
375.303	23.09
375.671	23.19
376.039	23.31
376.407	23.45
376.775	23.61
377.143	23.76
377.511	23.92
377.879	24.12
378.247	24.28
378.615	24.45
378.982	24.65
379.35	24.86
379.718	25.07
380.086	25.26
380.453	25.45
380.821	25.61
381.188	25.75
381.556	25.94
381.923	26.1
382.291	26.27
382.658	26.44
383.026	26.6
383.393	26.74
383.76	26.95
384.128	27.13
384.495	27.3
384.862	27.51
385.229	27.72
385.596	27.89
385.963	28.06
386.33	28.21
386.697	28.38
387.064	28.55
387.431	28.69
387.798	28.83
388.165	29.02
388.532	29.15
388.899	29.27
389.265	29.41
389.632	29.55
389.999	29.69
390.365	29.84
390.732	29.95
391.098	30.02
391.465	30.17
391.831	30.26
392.198	30.36
392.564	30.49
392.93	30.61
393.297	30.72
393.663	30.8
394.029	30.9
394.395	31.05
394.762	31.18
395.128	31.34
395.494	31.46
395.86	31.61
396.226	31.72
396.592	31.83
396.958	31.95
397.323	32.06
397.689	32.24
398.055	32.37
398.421	32.49
398.787	32.61
399.152	32.74
399.518	32.84
399.883	32.96
400.249	33.07
400.615	33.18
400.98	33.28
401.345	33.37
401.711	33.44
402.076	33.52
402.442	33.56
402.807	33.61
403.172	33.65
403.537	33.72
403.902	33.78
404.268	33.84
404.633	33.91
404.998	33.99
405.363	34.06
405.728	34.14
406.093	34.21
406.457	34.28
406.822	34.37
407.187	34.46
407.552	34.55
407.917	34.63
408.281	34.7
408.646	34.8
409.011	34.87
409.375	34.94
409.74	34.98
410.104	35.03
410.469	35.07
410.833	35.11
411.197	35.16
411.562	35.21
411.926	35.23
412.29	35.28
412.655	35.32
413.019	35.36
413.383	35.42
413.747	35.49
414.111	35.59
414.475	35.7
414.839	35.79
415.203	35.9
415.567	35.98
415.931	36.08
416.295	36.18
416.658	36.22
417.022	36.29
417.386	36.32
417.749	36.39
418.113	36.4
418.477	36.42
418.84	36.46
419.204	36.49
419.567	36.54
419.931	36.58
420.294	36.63
420.657	36.72
421.021	36.81
421.384	36.92
421.747	36.99
422.11	37.08
422.473	37.19
422.836	37.28
423.199	37.31
423.562	37.34
423.925	37.41
424.288	37.45
424.651	37.51
425.014	37.53
425.377	37.58
425.74	37.62
426.102	37.68
426.465	37.75
426.828	37.82
427.19	37.91
427.553	38.03
427.916	38.09
428.278	38.15
428.641	38.18
429.003	38.23
429.365	38.27
429.728	38.31
430.09	38.33
430.452	38.33
430.814	38.31
431.177	38.32
431.539	38.35
431.901	38.38
432.263	38.45
432.625	38.52
432.987	38.63
433.349	38.71
433.711	38.86
434.072	39
434.434	39.15
434.796	39.32
435.158	39.49
435.519	39.59
435.881	39.73
436.243	39.83
436.604	39.88
436.966	39.97
437.327	40.04
437.689	40.05
438.05	40.07
438.411	40.11
438.773	40.15
439.134	40.21
439.495	40.25
439.856	40.32
440.218	40.39
440.579	40.49
440.94	40.53
441.301	40.68
441.662	40.77
442.023	40.9
442.384	40.95
442.745	41.05
443.105	41.13
443.466	41.19
443.827	41.27
444.188	41.32
444.548	41.41
444.909	41.47
445.269	41.48
445.63	41.56
445.99	41.59
446.351	41.69
446.711	41.72
447.072	41.79
447.432	41.92
447.792	41.98
448.153	42.08
448.513	42.16
448.873	42.25
449.233	42.27
449.593	42.29
449.953	42.35
450.313	42.4
450.673	42.45
451.033	42.5
451.393	42.53
451.753	42.58
452.113	43.17
452.472	43.19
452.832	43.23
453.192	43.27
453.551	43.32
453.911	43.36
454.271	43.41
454.63	43.45
454.989	43.52
455.349	43.57
455.708	43.59
456.068	43.34
456.427	43.41
456.786	43.48
457.145	43.61
457.505	43.75
457.864	43.93
458.223	44.14
458.582	44.39
458.941	44.61
459.3	44.79
459.659	44.95
460.018	45.11
460.376	45.23
460.735	45.34
461.094	45.42
461.453	45.49
461.811	45.54
462.17	45.56
462.529	45.58
462.887	45.56
463.246	45.59
463.604	45.67
463.963	45.72
464.321	45.89
464.679	45.95
465.038	46.01
465.396	46.11
465.754	46.2
466.112	46.34
466.47	46.46
466.828	46.66
467.186	46.8
467.544	46.94
467.902	47.08
468.26	47.07
468.618	47.17
468.976	47.28
469.334	47.35
469.692	47.41
470.049	47.4
470.407	47.38
470.765	47.37
471.122	47.43
471.48	47.52
471.837	47.62
472.195	47.72
472.552	47.89
472.909	48.04
473.267	48.2
473.624	48.34
473.981	48.45
474.338	48.57
474.696	48.7
475.053	48.78
475.41	48.86
475.767	48.94
476.124	49.02
476.481	49.07
476.838	49.12
477.194	49.18
477.551	49.26
477.908	49.38
478.265	49.48
478.621	49.52
478.978	49.64
479.335	49.73
479.691	49.85
480.048	49.97
480.404	50.03
480.761	50.12
481.117	50.23
481.473	50.29
481.83	50.38
482.186	50.48
482.542	50.57
482.898	50.66
483.255	50.75
483.611	50.82
483.967	50.91
484.323	51.07
484.679	51.15
485.035	51.25
485.39	51.35
485.746	51.44
486.102	51.51
486.458	51.63
486.814	51.7
487.169	51.78
487.525	51.87
487.88	51.99
488.236	52.04
488.591	52.14
488.947	52.19
489.302	52.25
489.658	52.3
490.013	52.38
490.368	52.4
490.723	52.4
491.079	52.42
491.434	52.46
491.789	52.47
492.144	52.51
492.499	52.58
492.854	52.63
493.209	52.74
493.564	52.81
493.919	52.9
494.273	53
494.628	53.12
494.983	53.25
495.338	53.3
495.692	53.39
496.047	53.47
496.401	53.45
496.756	53.49
497.11	53.47
497.465	53.45
497.819	53.46
498.173	53.5
498.528	53.56
498.882	53.63
499.236	53.75
499.59	53.87
499.944	54
500.298	54.16
500.652	54.26
501.006	54.37
501.36	54.48
501.714	54.52
502.068	54.59
502.422	54.68
502.776	54.75
503.129	54.82
503.483	54.91
503.837	55.01
504.19	55.13
504.544	55.2
504.897	55.25
505.251	55.29
505.604	55.3
505.958	55.28
506.311	55.24
506.664	55.17
507.017	55.07
507.371	54.92
507.724	54.79
508.077	54.66
508.43	54.59
508.783	54.55
509.136	54.53
509.489	54.57
509.842	54.59
510.195	54.55
510.547	54.58
510.9	54.61
511.253	54.66
511.606	54.67
511.958	54.61
512.311	54.57
512.663	54.5
513.016	54.43
513.368	54.37
513.721	54.31
514.073	54.26
514.425	54.22
514.778	54.19
515.13	54.17
515.482	54.12
515.834	54.1
516.186	54.12
516.538	54.16
516.89	54.25
517.242	54.31
517.594	54.39
517.946	54.48
518.298	54.53
518.65	54.55
519.001	54.55
519.353	54.55
519.705	54.52
520.056	54.46
520.408	54.35
520.759	54.2
521.111	54.1
521.462	54.01
521.814	53.98
522.165	53.96
522.516	53.93
522.868	53.91
523.219	53.88
523.57	53.84
523.921	53.83
524.272	53.84
524.623	53.81
524.974	53.75
525.325	53.69
525.676	53.55
526.027	53.43
526.378	53.33
526.728	53.22
527.079	53.15
527.43	53.14
527.78	53.1
528.131	53.07
528.481	53.03
528.832	53.04
529.182	53.04
529.533	53.06
529.883	53.08
530.233	53.11
530.584	53.1
530.934	53.07
531.284	53
531.634	52.92
531.984	52.86
532.334	52.83
532.684	52.69
533.034	52.59
533.384	52.51
533.734	52.42
534.084	52.31
534.434	52.27
534.783	52.22
535.133	52.17
535.483	52.1
535.832	52.01
536.182	51.92
536.531	51.91
536.881	51.88
537.23	51.76
537.58	51.67
537.929	51.61
538.278	52.49
538.628	52.33
538.977	52.24
539.326	52.12
539.675	52.05
540.024	51.97
540.373	51.91
540.722	51.8
541.071	51.78
541.42	51.72
541.769	51.67
542.117	50.64
542.466	50.61
542.815	50.54
543.163	50.49
543.512	50.43
543.861	50.36
544.209	50.25
544.558	50.19
544.906	50.11
545.254	49.99
545.603	49.9
545.951	49.83
546.299	49.84
546.647	49.81
546.996	49.77
547.344	49.71
547.692	49.68
548.04	49.66
548.388	49.59
548.736	49.53
549.083	49.51
549.431	49.46
549.779	49.35
550.127	49.23
550.475	49.13
550.822	49.02
551.17	48.96
551.517	48.86
551.865	48.76
552.212	48.71
552.56	48.64
552.907	48.55
553.254	48.47
553.602	48.43
553.949	48.34
554.296	48.22
554.643	48.08
554.99	47.94
555.337	47.79
555.684	47.68
556.031	47.52
556.378	47.36
556.725	47.27
557.072	47.16
557.419	47.01
557.765	46.87
558.112	46.79
558.459	46.68
558.805	46.57
559.152	46.49
559.498	46.38
559.845	46.3
560.191	46.19
560.538	46.07
560.884	45.93
561.23	45.82
561.576	45.67
561.923	45.54
562.269	45.45
562.615	45.37
562.961	45.28
563.307	45.2
563.653	45.1
563.999	44.98
564.344	44.9
564.69	44.85
565.036	44.75
565.382	44.71
565.727	44.63
566.073	44.53
566.419	44.39
566.764	44.29
567.11	44.1
567.455	43.96
567.8	43.91
568.146	43.75
568.491	43.62
568.836	43.5
569.181	43.36
569.527	43.22
569.872	43.14
570.217	43.04
570.562	42.89
570.907	42.83
571.252	42.73
571.597	42.65
571.941	42.56
572.286	42.46
572.631	42.41
572.976	42.4
573.32	42.37
573.665	42.34
574.009	42.29
574.354	42.27
574.698	42.24
575.043	42.17
575.387	42.1
575.731	42.06
576.076	42.04
576.42	41.98
576.764	41.96
577.108	41.88
577.452	41.86
577.796	41.81
578.14	41.72
578.484	41.61
578.828	41.51
579.172	41.45
579.516	41.39
579.86	41.27
580.203	41.17
580.547	41.06
580.891	40.99
581.234	40.86
581.578	40.78
581.921	40.7
582.264	40.62
582.608	40.55
582.951	40.53
583.294	40.41
583.638	40.29
583.981	40.25
584.324	40.18
584.667	40.12
585.01	40.05
585.353	39.98
585.696	39.94
586.039	39.91
586.382	39.84
586.725	39.81
587.067	39.79
587.41	39.76
587.753	39.75
588.095	39.73
588.438	39.7
588.781	39.66
589.123	39.63
589.465	39.56
589.808	39.51
590.15	39.48
590.492	39.44
590.835	39.39
591.177	39.34
591.519	39.32
591.861	39.27
592.203	39.24
592.545	39.17
592.887	39.14
593.229	39.09
593.571	39
593.913	38.97
594.254	38.9
594.596	38.84
594.938	38.75
595.279	38.62
595.621	38.59
595.963	38.55
596.304	38.48
596.645	38.4
596.987	38.36
597.328	38.22
597.669	38.22
598.011	38.16
598.352	38.07
598.693	37.96
599.034	37.94
599.375	37.93
599.716	37.83
600.057	37.78
600.398	37.73
600.739	37.67
601.08	37.61
601.42	37.57
601.761	37.53
602.102	37.4
602.442	37.42
602.783	37.35
603.123	37.32
603.464	37.26
603.804	37.16
604.145	37.11
604.485	37.03
604.825	37.01
605.166	36.93
605.506	36.9
605.846	36.81
606.186	36.79
606.526	36.64
606.866	36.56
607.206	36.5
607.546	36.4
607.886	36.3
608.225	36.24
608.565	36.16
608.905	36.1
609.245	35.99
609.584	35.99
609.924	35.87
610.263	35.8
610.603	35.75
610.942	35.71
611.281	35.68
611.621	35.55
611.96	35.52
612.299	35.46
612.638	35.37
612.978	35.3
613.317	35.24
613.656	35.21
613.995	35.13
614.334	35.11
614.672	34.98
615.011	34.96
615.35	34.89
615.689	34.79
616.027	34.77
616.366	34.76
616.705	34.68
617.043	34.64
617.382	34.56
617.72	34.49
618.059	34.39
618.397	34.29
618.735	34.2
619.073	34.18
619.412	34.06
619.75	34.02
620.088	33.92
620.426	33.83
620.764	33.79
621.102	33.74
621.44	33.7
621.778	33.62
622.115	33.58
622.453	33.48
622.791	33.43
623.129	33.27
623.466	33.26
623.804	33.19
624.141	33.11
624.479	33.11
624.816	32.95
625.153	32.84
625.491	32.85
625.828	32.83
626.165	32.82
626.502	32.8
626.84	32.69
627.177	32.6
627.514	32.49
627.851	32.38
628.188	32.25
628.524	32.18
628.861	32.09
629.198	31.99
629.535	31.91
629.871	31.84
630.208	31.7
630.545	31.61
630.881	31.46
631.218	31.36
631.554	31.25
631.89	31.1
632.227	31.02
632.563	30.93
632.899	30.83
633.235	30.75
633.572	30.59
633.908	30.49
634.244	30.4
634.58	30.3
634.916	30.23
635.251	30.18
635.587	30.16
635.923	30.03
636.259	29.9
636.595	29.76
636.93	29.65
637.266	29.59
637.601	29.44
637.937	29.31
638.272	29.25
638.608	29.14
638.943	28.98
639.278	28.84
639.613	28.76
639.949	28.7
640.284	28.61
640.619	28.53
640.954	28.4
641.289	28.35
641.624	28.29
641.959	28.19
642.294	28.04
642.628	27.93
642.963	27.86
643.298	27.72
643.632	27.67
643.967	27.61
644.302	27.48
644.636	27.44
644.971	27.31
645.305	27.17
645.639	27.08
645.974	26.98
646.308	26.9
646.642	26.8
646.976	26.7
647.31	26.57
647.644	26.39
647.978	26.27
648.312	26.14
648.646	26.12
648.98	26.11
649.314	26.03
649.647	26
649.981	25.92
650.315	25.84
650.648	25.76
650.982	25.68
651.315	25.71
651.649	25.64
651.982	25.54
652.316	25.45
652.649	25.36
652.982	25.29
653.315	25.2
653.648	25.15
653.982	25.1
654.315	25.05
654.648	24.88
654.981	24.8
655.313	24.78
655.646	24.73
655.979	24.64
656.312	24.53
656.644	24.46
656.977	24.46
657.31	24.31
657.642	24.19
657.975	24.11
658.307	24.1
658.64	23.99
658.972	23.92
659.304	23.78
659.636	23.73
659.969	23.66
660.301	23.58
660.633	23.45
660.965	23.41
661.297	23.34
661.629	23.32
661.961	23.25
662.292	23.2
662.624	23.15
662.956	23.15
663.288	23.17
663.619	23.15
663.951	23.07
664.282	23.06
664.614	23.03
664.945	23.01
665.276	22.89
665.608	22.83
665.939	22.78
666.27	22.65
666.601	22.56
666.933	22.38
667.264	22.24
667.595	22.18
667.926	22.07
668.256	22.04
668.587	21.98
668.918	21.97
669.249	21.89
669.58	21.76
669.91	21.72
670.241	21.73
670.571	21.7
670.902	21.71
671.232	21.65
671.563	21.58
671.893	21.48
672.223	21.42
672.554	21.37
672.884	21.35
673.214	21.36
673.544	21.37
673.874	21.33
674.204	21.26
674.534	21.18
674.864	21.13
675.194	21.07
675.524	21.13
675.853	21.1
676.183	20.97
676.513	20.92
676.842	20.88
677.172	20.87
677.501	20.78
677.831	20.73
678.16	20.7
678.489	20.76
678.819	20.74
679.148	20.62
679.477	20.56
679.806	20.52
680.135	20.42
680.464	20.34
680.793	20.22
681.122	20.18
681.451	20.1
681.78	20.03
682.108	19.88
682.437	19.85
682.766	19.81
683.094	19.75
683.423	19.73
683.751	19.64
684.08	19.59
684.408	19.5
684.737	19.46
685.065	19.41
685.393	19.41
685.721	19.41
686.049	19.32
686.377	19.25
686.705	19.18
687.033	19.14
687.361	19.15
687.689	19.2
688.017	19.28
688.345	19.2
688.673	19.24
689.0	19.17
689.328	19.1
689.655	19.07
689.983	19.03
690.31	19.04
690.638	19
690.965	18.99
691.292	18.83
691.62	18.75
691.947	18.75
692.274	18.53
692.601	18.49
692.928	18.53
693.255	18.44
693.582	18.35
693.909	18.19
694.236	18.21
694.562	18.31
694.889	18.29
695.216	18.26
695.542	18.21
695.869	18.25
696.196	18.27
696.522	18.2
696.848	18.23
697.175	18.25
697.501	18.33
697.827	18.24
698.154	18.07
698.48	17.99
698.806	17.9
699.132	17.89
699.458	17.96
699.784	17.83
700.11	17.79
700.435	17.75
700.761	17.7
701.087	17.62
701.413	17.58
701.738	17.62
702.064	17.61
702.389	17.53
702.715	17.52
703.04	17.38
703.366	17.34
703.691	17.28
704.016	17.18
704.341	17.08
704.666	17.09
704.992	17.13
705.317	17.01
705.642	16.95
705.967	16.91
706.291	16.85
706.616	16.93
706.941	17.03
707.266	17.1
707.59	17.26
707.915	17.43
708.24	17.34
708.564	17.26
708.889	17.2
709.213	17.27
709.537	17.21
709.862	17.14
710.186	17.03
710.51	16.94
710.834	16.81
711.158	16.7
711.482	16.49
711.806	16.57
712.13	16.61
712.454	16.58
712.778	16.59
713.102	16.5
713.426	16.59
713.749	16.52
714.073	16.53
714.396	16.48
714.72	16.4
715.043	16.41
715.367	16.3
715.69	16.13
716.013	16.1
716.337	16.01
716.66	16.18
716.983	16.19
717.306	16.16
717.629	16.03
717.952	16.05
718.275	16.07
718.598	16.06
718.921	16.11
719.243	16.25
719.566	16.34
719.889	16.41
720.211	16.27
720.534	16
720.856	15.96
721.179	16.09
721.501	16.07
721.823	16.1
722.146	16.14
722.468	16.17
722.79	16.16
723.112	15.95
723.434	15.9
723.756	15.9
724.078	15.95
724.4	15.88
724.722	15.72
725.044	15.54
725.366	15.33
725.687	15.19
726.009	14.98
726.33	14.82
726.652	14.87
726.973	14.69
727.295	14.66
727.616	14.64
727.938	14.81
728.259	14.91
728.58	15.01
728.901	15.1
729.222	15
729.543	15.09
729.864	14.94
730.185	14.77
730.506	14.77
730.827	14.81
731.148	14.85
731.468	14.67
731.789	14.6
732.11	14.56
732.43	14.57
732.751	14.71
733.071	14.71
733.392	14.91
733.712	15.12
734.032	15.25
734.352	15.3
734.673	15.2
734.993	15.2
735.313	15.16
735.633	15.59
735.953	15.58
736.273	15.56
736.593	15.49
736.912	15.44
737.232	15.37
737.552	15.2
737.871	15.09
738.191	15.2
738.51	15.35
738.83	15.55
739.149	15.26
739.469	15.25
739.788	15.01
740.107	15.04
740.426	15.04
740.746	15.03
741.065	15.06
741.384	14.8
741.703	14.68
742.022	14.73
742.341	14.51
742.659	14.28
742.978	14.35
743.297	14.68
743.615	14.67
743.934	14.57
744.253	14.44
744.571	14.47
744.89	14.88
745.208	14.93
745.526	14.82
745.845	14.69
746.163	14.59
746.481	14.54
746.799	14.39
747.117	14.35
747.435	14.55
747.753	14.84
748.071	14.73
748.389	14.66
748.706	14.57
749.024	14.57
749.342	14.77
749.659	15.24
749.977	15.02
750.295	15.11
750.612	15.21
750.929	15.09
751.247	15.23
751.564	15.5
751.881	15.53
752.198	15.71
752.516	15.93
752.833	15.86
753.15	15.37
753.467	15.16
753.783	14.92
754.1	15.06
754.417	14.89
754.734	14.61
755.05	14.61
755.367	14.51
755.684	14.3
756.0	13.93
756.317	13.88
756.633	13.97
756.949	14.39
757.266	14.65
757.582	14.36
757.898	14.49
758.214	14.31
758.53	14.08
758.846	14.11
759.162	13.99
759.478	13.93
759.794	13.97
760.11	13.93
760.426	13.71
760.741	13.54
761.057	13.42
761.372	13.06
761.688	13.3
762.003	13.49
762.319	13.34
762.634	13.56
762.949	13.6
763.265	13.47
763.58	13.47
763.895	13.42
764.21	13.37
764.525	13.25
764.84	13.35
765.155	13.25
765.47	13.2
765.785	13.17
766.099	13.26
766.414	13.2
766.729	13.04
767.043	13.2
767.358	13.33
767.672	13.36
767.987	13.3
768.301	13.45
768.615	13.72
768.929	13.72
769.244	13.83
769.558	13.79
769.872	13.62
770.186	13.94
770.5	13.64
770.814	13.62
771.127	13.85
771.441	14.13
771.755	14.36
772.069	13.68
772.382	13.52
772.696	13.38
773.009	13.34
773.323	13.86
773.636	13.86
773.95	13.86
774.263	13.72
774.576	12.81
774.889	12.88
775.202	12.76
775.515	13.36
775.828	12.85
776.141	13.25
776.454	13.06
776.767	12.47
777.08	12.02
777.393	12.21
777.705	12.27
778.018	12.84
778.33	12.87
778.643	12.61
778.955	12.14
779.268	12.42
779.58	12.35
779.892	12.33
780.205	12.33
780.517	12.7
780.829	12.9
781.141	13.09
781.453	13.09
781.765	12.95
782.077	12.86
782.388	13.09
782.7	13.18
783.012	13.14
783.324	13.07
783.635	13.41
783.947	13.66
784.258	12.97
784.57	12.74
784.881	12.74
785.192	12.4
785.504	12.95
785.815	12.79
786.126	12.88
786.437	13.31
786.748	13.27
787.059	13.46
787.37	12.95
787.681	13.32
787.992	13.78
788.302	14.04
788.613	14.5
788.924	13.72
789.234	14.46
789.545	14.87
789.855	14.29
790.166	14.17
790.476	14.27
790.786	14.74
791.096	14.78
791.407	14.63
791.717	14.2
792.027	13.87
792.337	14.22
792.647	13.73
792.957	13.26
793.266	13.49
793.576	13.96
793.886	13.36
794.196	13.09
794.505	17
794.815	17.06
795.124	17.48
795.434	18.01
795.743	17.65
796.052	17.69
796.362	17.11
796.671	16.71
796.98	16.82
797.289	17.02
797.598	16.54
797.907	12.73
798.216	12.46
798.525	12.74
798.834	12.38
799.142	12.67
799.451	12.37
799.76	12.71
800.068	12.44
800.377	12.31
800.685	13.07
800.994	13.62
801.302	13.27
801.61	13.19
801.918	12.26
802.227	12.45
802.535	13.18
802.843	13.82
803.151	14.09
803.459	14.42
803.767	14.45
804.074	13.9
804.382	14.1
804.69	15.95
804.998	16.22
805.305	16.65
805.613	16.36
805.92	15.66
806.228	15.28
806.535	14.69
806.842	14.54
807.15	14.06
807.457	13.91
807.764	13.62
808.071	12.57
808.378	12.55
808.685	12.95
808.992	13.05
809.299	13.29
809.605	13.35
809.912	14.58
810.219	14.8
810.525	15.02
810.832	14.85
811.138	14.87
811.445	14.7
811.751	14.07
812.058	13.84
812.364	14.25
812.67	13.82
812.976	13.62
813.282	12.79
813.588	12.67
813.894	12.85
814.2	12.67
814.506	12.82
814.812	12.45
815.118	13.35
815.423	13.06
815.729	12.71
816.035	12.95
816.34	13.15
816.646	13.49
816.951	13.67
817.256	13.75
817.562	14.23
817.867	13.91
818.172	13.93
818.477	13.53
818.782	13.62
819.087	14.51
819.392	14.92
819.697	14.92
820.002	14.71
820.306	14.69
820.611	14.74
820.916	14.49
821.22	14.35
821.525	13.6
821.829	13.18
822.134	12.86
822.438	12.27
822.742	11.95
823.047	11.69
823.351	11.51
823.655	11.53
823.959	11.37
824.263	11.21
824.567	11.23
824.871	11.33
825.174	11.44
825.478	12.93
825.782	13.17
826.086	13.43
826.389	13.56
826.693	13.75
826.996	13.93
827.3	14.08
827.603	14.39
827.906	14.56
828.209	14.98
828.513	15.14
828.816	13.33
829.119	13.08
829.422	12.88
829.725	12.81
830.028	12.69
830.33	11.95
830.633	11.91
830.936	11.91
831.238	11.35
831.541	10.87
831.844	10.39
832.146	10.63
832.448	10.91
832.751	11.01
833.053	11.52
833.355	12.31
833.657	12.43
833.96	12.23
834.262	11.74
834.564	12.25
834.865	12.03
835.167	13.23
835.469	12.71
835.771	12.46
836.073	12.02
836.374	11.59
836.676	11.09
836.977	11.4
837.279	11.47
837.58	11.95
837.882	12.28
838.183	13.23
838.484	11.87
838.785	12.48
839.086	12.5
839.387	13.14
839.688	13.85
839.989	13.96
840.29	14.61
840.591	15.35
840.892	14.86
841.192	15.09
841.493	13.81
841.794	14.6
842.094	13.94
842.394	13.59
842.695	13.59
842.995	13.59
843.295	13.59
843.596	13.59
843.896	13.59
844.196	13.59
844.496	13.59
844.796	13.59
845.096	13.59
845.396	13.59
845.695	13.59
845.995	14.58
846.295	16.24
846.594	17.93
846.894	18.99
847.194	18.54
847.493	19.17
847.792	19.48
848.092	18.71
848.391	16.76
848.69	18
848.989	17.99
849.288	17.73
849.587	17.35
849.886	15.64
850.185	15.25
850.484	15.58
850.783	15.03
851.081	16.02
851.38	17.04
851.679	18.88
851.977	18.95
852.276	19.27
852.574	19.76
852.872	21.03
853.171	21.41
853.469	21.17
853.767	21.68
854.065	22.41
854.363	20.92
854.661	22.41
854.959	22.15
855.257	20.63
855.555	19.77
855.853	19.67
856.15	18.73
856.448	18.44
856.746	18.48
857.043	17.57
857.341	20.27
857.638	26.36
857.935	24.82
858.233	23.62
858.53	25.96
858.827	26.25
859.124	23.88
859.421	23.68
859.718	24.97
860.015	23.75
860.312	23.78
860.609	20.39
860.905	17.34
861.202	16.62
861.499	16.09
861.795	16.57
862.092	16.38
862.388	15.07
862.684	15.46
862.981	15.15
863.277	11.42
863.573	12.5
863.869	13.28
864.165	10.29
864.461	9.78
864.757	10.19
865.053	7.92
865.349	7.2
865.645	9.92
865.94	8.55
866.236	5.9
866.532	10.88
866.827	9.99
867.123	9.38
867.418	10.84
867.713	9.98
868.009	10.65
868.304	11.75
868.599	13.3
868.894	13.61
869.189	16.99
869.484	21.89
869.779	22.9
870.074	23.45
870.369	24.86
870.663	26.75
870.958	26.46
871.252	23.42
871.547	23.78
871.842	22.26
872.136	20.7
872.43	17.82
872.725	15.6
873.019	14.69
873.313	16.46
873.607	14.97
873.901	12.75
874.195	15.18
874.489	18.31
874.783	16.38
875.077	16.37
875.37	20.89
875.664	21.24
875.958	22.31
876.251	21.28
876.545	20.92
876.838	21.4
877.132	22.89
877.425	22.69
877.718	20.93
878.011	20.06
878.305	21.27
878.598	17.48
878.891	18
879.184	17.96
879.476	19.37
879.769	17.46
880.062	18.44
880.355	14.53
880.647	15.1
880.94	13.08
881.232	13.01
881.525	10.52
881.817	9.15
882.11	8.37
882.402	6.6
882.694	5.74
882.986	5.48
883.278	5.41
883.57	6.87
883.862	6.98
884.154	8.32
884.446	8.73
884.738	9.53
885.03	10.02
885.321	10.79
885.613	11.23
885.904	11.64
886.196	12.47
886.487	13.5
886.779	13.42
887.07	13.88
887.361	14.16
887.652	14.67
887.943	15.29
888.234	16.29
888.525	15.86
888.816	16.32
889.107	16.76
889.398	17.84
889.689	17.25
889.979	18.45
890.27	18.52
890.56	19.3
890.851	20.49
891.141	20.01
891.432	19.21
891.722	21.12
