Data from groin2_Reflection__1__15-26-40-272.txt Node

Date: Thu Aug 04 15:26:40 AEST 2022
User: kathy
Spectrometer: JAZA2503
Trigger mode: 0
Integration Time (sec): 2.439700E-1
Scans to average: 10
Electric dark correction enabled: true
Nonlinearity correction enabled: true
Boxcar width: 5
XAxis mode: Wavelengths
Number of Pixels in Spectrum: 2048
>>>>>Begin Spectral Data<<<<<
189.467	482.1
189.852	338.91
190.237	369.95
190.622	432.54
191.007	522.96
191.392	269.36
191.777	161.56
192.162	160.48
192.546	244.25
192.931	315.49
193.316	140.87
193.701	324
194.086	317.19
194.47	318.05
194.855	-10431.42
195.24	-1539.1
195.624	752.01
196.009	416.33
196.393	593.28
196.778	1242.61
197.163	388.33
197.547	219.2
197.931	173.9
198.316	122.79
198.7	98.27
199.085	78.78
199.469	70.59
199.853	52.27
200.237	44.44
200.622	39.45
201.006	39.02
201.39	36.39
201.774	31.52
202.158	32.67
202.542	31.57
202.926	26.14
203.31	20.21
203.694	18.94
204.078	18.44
204.462	19.83
204.846	22.26
205.23	22.99
205.614	22.34
205.998	33.65
206.381	33.66
206.765	31.91
207.149	27.88
207.532	28.6
207.916	25.13
208.3	26.14
208.683	26.32
209.067	23.59
209.45	17.28
209.834	20.25
210.217	15.84
210.601	12.39
210.984	21.25
211.367	28.31
211.751	23.07
212.134	21.05
212.517	25.14
212.901	26.77
213.284	30.29
213.667	30.61
214.05	29.5
214.433	25.35
214.816	27.08
215.199	19.48
215.582	17.94
215.965	18.59
216.348	23.81
216.731	18.1
217.114	12.7
217.497	9.12
217.88	8.78
218.262	2.78
218.645	1.12
219.028	2.65
219.411	0.39
219.793	2.11
220.176	5.67
220.559	7.12
220.941	7.27
221.324	11.56
221.706	13.69
222.089	15.48
222.471	18.17
222.853	19.21
223.236	17.35
223.618	15.48
224	13.53
224.383	9.54
224.765	5.99
225.147	7.78
225.529	6.05
225.912	5.56
226.294	3.36
226.676	1.91
227.058	0.64
227.44	1.57
227.822	2.6
228.204	3.38
228.586	3.43
228.968	3.48
229.349	3.11
229.731	3.34
230.113	2.65
230.495	3.04
230.877	3.19
231.258	3.62
231.64	3.39
232.022	3.19
232.403	3.14
232.785	3.43
233.166	3.2
233.548	3.07
233.929	2.22
234.311	2.74
234.692	2.58
235.073	2.9
235.455	2.48
235.836	3.2
236.217	2.98
236.599	2.74
236.98	2.88
237.361	3.03
237.742	3.01
238.123	3.43
238.504	3.2
238.885	3.43
239.266	2.99
239.647	2.86
240.028	2.13
240.409	2.24
240.79	2.03
241.171	1.84
241.552	1.92
241.933	1.7
242.313	1.68
242.694	1.74
243.075	1.66
243.456	1.56
243.836	1.7
244.217	2.08
244.597	2.12
244.978	2.07
245.358	2.21
245.739	2.15
246.119	2.15
246.5	2.17
246.88	2
247.26	1.91
247.641	1.86
248.021	1.8
248.401	1.49
248.781	1.41
249.162	1.51
249.542	1.31
249.922	1.24
250.302	1.29
250.682	1.09
251.062	1.02
251.442	0.89
251.822	0.97
252.202	1.01
252.582	1.16
252.961	1.39
253.341	1.43
253.721	1.55
254.101	1.68
254.48	1.75
254.86	1.89
255.24	2.25
255.619	2.33
255.999	2.38
256.378	2.25
256.758	2.16
257.137	1.78
257.517	1.53
257.896	1.43
258.276	1.34
258.655	1.02
259.034	0.95
259.414	0.72
259.793	0.71
260.172	0.64
260.551	0.66
260.93	0.64
261.309	0.71
261.688	0.74
262.068	0.83
262.447	0.82
262.825	0.92
263.204	0.79
263.583	0.85
263.962	0.76
264.341	0.83
264.72	0.67
265.099	0.69
265.477	0.68
265.856	0.72
266.235	0.65
266.613	0.57
266.992	0.57
267.371	0.75
267.749	0.84
268.128	0.86
268.506	0.85
268.884	1.05
269.263	1
269.641	0.94
270.02	0.86
270.398	0.83
270.776	0.89
271.154	0.93
271.533	0.95
271.911	0.91
272.289	1.04
272.667	1.09
273.045	1.08
273.423	1.11
273.801	1.16
274.179	1.13
274.557	1.18
274.935	1.19
275.313	1.17
275.69	1.2
276.068	1.19
276.446	1.12
276.824	0.96
277.201	0.87
277.579	0.87
277.957	0.83
278.334	0.87
278.712	0.83
279.089	0.76
279.467	0.74
279.844	0.73
280.222	0.61
280.599	0.6
280.976	0.67
281.354	0.65
281.731	0.66
282.108	0.67
282.485	0.69
282.863	0.69
283.24	0.74
283.617	0.79
283.994	0.8
284.371	0.88
284.748	0.89
285.125	0.86
285.502	0.91
285.879	0.91
286.256	0.91
286.633	0.92
287.009	0.94
287.386	0.97
287.763	1
288.139	0.99
288.516	1.03
288.893	1.07
289.269	1.16
289.646	1.17
290.022	1.18
290.399	1.24
290.775	1.3
291.152	1.37
291.528	1.37
291.904	1.32
292.281	1.33
292.657	1.34
293.033	1.36
293.41	1.39
293.786	1.46
294.162	1.52
294.538	1.51
294.914	1.53
295.29	1.55
295.666	1.6
296.042	1.68
296.418	1.78
296.794	1.81
297.17	1.89
297.546	1.93
297.921	1.97
298.297	2
298.673	2.07
299.048	2.13
299.424	2.2
299.8	2.28
300.175	2.35
300.551	2.42
300.926	2.51
301.302	2.56
301.677	2.62
302.053	2.72
302.428	2.81
302.803	2.9
303.179	2.99
303.554	3.02
303.929	3.08
304.304	3.16
304.68	3.21
305.055	3.26
305.43	3.28
305.805	3.36
306.18	3.36
306.555	3.41
306.93	3.45
307.305	3.48
307.679	3.52
308.054	3.52
308.429	3.5
308.804	3.49
309.179	3.52
309.553	3.57
309.928	3.58
310.303	3.63
310.677	3.66
311.052	3.68
311.426	3.7
311.801	3.73
312.175	3.76
312.55	3.83
312.924	3.88
313.298	3.94
313.673	3.99
314.047	4
314.421	4
314.795	4.03
315.17	4.04
315.544	4.07
315.918	4.09
316.292	4.18
316.666	4.25
317.04	4.33
317.414	4.36
317.788	4.4
318.162	4.54
318.535	4.65
318.909	4.73
319.283	4.88
319.657	5.02
320.03	5.2
320.404	5.35
320.778	5.63
321.151	6.06
321.525	6.56
321.898	7.16
322.272	7.74
322.645	8.38
323.019	9.04
323.392	9.82
323.765	10.7
324.139	11.58
324.512	12.53
324.885	13.53
325.258	14.47
325.632	15.27
326.005	15.96
326.378	16.55
326.751	17
327.124	17.3
327.497	17.47
327.87	17.61
328.243	17.77
328.616	17.91
328.988	17.98
329.361	18.05
329.734	18.09
330.107	18.05
330.479	17.93
330.852	17.72
331.225	17.59
331.597	17.42
331.97	17.24
332.342	17.02
332.715	16.87
333.087	16.75
333.46	16.61
333.832	16.57
334.204	16.56
334.577	16.6
334.949	16.53
335.321	16.49
335.693	16.4
336.065	16.2
336.438	16
336.81	15.88
337.182	15.71
337.554	15.56
337.926	15.49
338.298	15.37
338.669	15.23
339.041	15.13
339.413	15.08
339.785	15.02
340.157	14.97
340.528	14.98
340.9	14.92
341.272	14.85
341.643	14.83
342.015	14.83
342.386	14.88
342.758	15
343.129	15.15
343.501	15.23
343.872	15.28
344.243	15.3
344.615	15.27
344.986	15.19
345.357	15.19
345.728	15.17
346.099	15.21
346.471	15.22
346.842	15.19
347.213	15.15
347.584	15.18
347.955	15.2
348.326	15.18
348.697	15.13
349.067	15.13
349.438	15.19
349.809	15.27
350.18	15.38
350.55	15.41
350.921	15.49
351.292	15.6
351.662	15.67
352.033	15.72
352.403	15.72
352.774	15.73
353.144	15.75
353.515	15.76
353.885	15.77
354.255	15.72
354.626	15.72
354.996	15.68
355.366	15.67
355.736	15.67
356.107	15.65
356.477	15.66
356.847	15.71
357.217	15.68
357.587	15.71
357.957	15.74
358.327	15.78
358.697	15.81
359.066	15.85
359.436	15.88
359.806	15.86
360.176	15.92
360.546	15.96
360.915	15.99
361.285	16.03
361.654	16.01
362.024	16.02
362.393	16.01
362.763	16.03
363.132	16.02
363.502	16.02
363.871	16.03
364.24	16.02
364.61	16.03
364.979	16.04
365.348	16.03
365.717	16.06
366.087	16.06
366.456	16.07
366.825	16.08
367.194	16.08
367.563	16.08
367.932	16.09
368.301	16.09
368.669	16.09
369.038	16.05
369.407	16.07
369.776	16.07
370.145	16.08
370.513	16.08
370.882	16.06
371.25	16.08
371.619	16.08
371.988	16.07
372.356	16.08
372.724	16.07
373.093	16.08
373.461	16.03
373.83	16
374.198	15.96
374.566	15.91
374.934	15.89
375.303	15.87
375.671	15.86
376.039	15.83
376.407	15.84
376.775	15.77
377.143	15.76
377.511	15.75
377.879	15.76
378.247	15.77
378.615	15.78
378.982	15.79
379.35	15.77
379.718	15.75
380.086	15.74
380.453	15.72
380.821	15.75
381.188	15.73
381.556	15.75
381.923	15.76
382.291	15.75
382.658	15.72
383.026	15.71
383.393	15.74
383.76	15.75
384.128	15.77
384.495	15.78
384.862	15.75
385.229	15.76
385.596	15.72
385.963	15.68
386.33	15.68
386.697	15.7
387.064	15.65
387.431	15.61
387.798	15.56
388.165	15.52
388.532	15.5
388.899	15.48
389.265	15.44
389.632	15.44
389.999	15.43
390.365	15.41
390.732	15.38
391.098	15.4
391.465	15.4
391.831	15.41
392.198	15.39
392.564	15.38
392.93	15.38
393.297	15.39
393.663	15.41
394.029	15.41
394.395	15.43
394.762	15.46
395.128	15.47
395.494	15.5
395.86	15.52
396.226	15.58
396.592	15.61
396.958	15.63
397.323	15.65
397.689	15.68
398.055	15.72
398.421	15.73
398.787	15.74
399.152	15.76
399.518	15.78
399.883	15.8
400.249	15.81
400.615	15.81
400.98	15.84
401.345	15.86
401.711	15.83
402.076	15.8
402.442	15.81
402.807	15.82
403.172	15.8
403.537	15.78
403.902	15.78
404.268	15.76
404.633	15.75
404.998	15.72
405.363	15.71
405.728	15.74
406.093	15.76
406.457	15.77
406.822	15.79
407.187	15.83
407.552	15.86
407.917	15.89
408.281	15.89
408.646	15.93
409.011	15.94
409.375	15.96
409.74	15.93
410.104	15.94
410.469	15.92
410.833	15.9
411.197	15.89
411.562	15.88
411.926	15.87
412.29	15.88
412.655	15.88
413.019	15.9
413.383	15.93
413.747	15.95
414.111	15.98
414.475	16.02
414.839	16.07
415.203	16.09
415.567	16.09
415.931	16.11
416.295	16.16
416.658	16.16
417.022	16.17
417.386	16.15
417.749	16.14
418.113	16.11
418.477	16.11
418.84	16.08
419.204	16.08
419.567	16.09
419.931	16.08
420.294	16.06
420.657	16.09
421.021	16.1
421.384	16.13
421.747	16.18
422.11	16.2
422.473	16.22
422.836	16.27
423.199	16.28
423.562	16.31
423.925	16.3
424.288	16.32
424.651	16.32
425.014	16.35
425.377	16.36
425.74	16.35
426.102	16.36
426.465	16.4
426.828	16.42
427.19	16.44
427.553	16.47
427.916	16.5
428.278	16.5
428.641	16.49
429.003	16.47
429.365	16.44
429.728	16.44
430.09	16.43
430.452	16.41
430.814	16.37
431.177	16.34
431.539	16.33
431.901	16.33
432.263	16.34
432.625	16.35
432.987	16.36
433.349	16.4
433.711	16.45
434.072	16.48
434.434	16.5
434.796	16.54
435.158	16.61
435.519	16.64
435.881	16.69
436.243	16.72
436.604	16.75
436.966	16.77
437.327	16.76
437.689	16.76
438.05	16.74
438.411	16.75
438.773	16.75
439.134	16.74
439.495	16.76
439.856	16.76
440.218	16.77
440.579	16.78
440.94	16.82
441.301	16.83
441.662	16.84
442.023	16.89
442.384	16.92
442.745	16.96
443.105	16.94
443.466	16.95
443.827	16.95
444.188	16.96
444.548	16.98
444.909	16.98
445.269	17.01
445.63	17.01
445.99	17.01
446.351	17.03
446.711	17.01
447.072	17.04
447.432	17.05
447.792	17.04
448.153	17.05
448.513	17.06
448.873	17.04
449.233	17.01
449.593	17.02
449.953	17
450.313	16.98
450.673	16.98
451.033	16.99
451.393	17
451.753	17.02
452.113	17.43
452.472	17.42
452.832	17.39
453.192	17.39
453.551	17.33
453.911	17.29
454.271	17.22
454.63	17.18
454.989	17.14
455.349	17.11
455.708	17.09
456.068	16.87
456.427	16.86
456.786	16.89
457.145	16.91
457.505	16.96
457.864	17.02
458.223	17.1
458.582	17.2
458.941	17.27
459.3	17.34
459.659	17.38
460.018	17.41
460.376	17.45
460.735	17.48
461.094	17.51
461.453	17.52
461.811	17.52
462.17	17.52
462.529	17.48
462.887	17.47
463.246	17.45
463.604	17.45
463.963	17.45
464.321	17.36
464.679	17.33
465.038	17.33
465.396	17.33
465.754	17.34
466.112	17.34
466.47	17.38
466.828	17.4
467.186	17.44
467.544	17.44
467.902	17.45
468.26	17.57
468.618	17.61
468.976	17.59
469.334	17.59
469.692	17.57
470.049	17.54
470.407	17.5
470.765	17.46
471.122	17.42
471.48	17.45
471.837	17.46
472.195	17.49
472.552	17.51
472.909	17.54
473.267	17.54
473.624	17.56
473.981	17.59
474.338	17.6
474.696	17.6
475.053	17.61
475.41	17.58
475.767	17.59
476.124	17.57
476.481	17.56
476.838	17.54
477.194	17.54
477.551	17.52
477.908	17.5
478.265	17.49
478.621	17.49
478.978	17.48
479.335	17.49
479.691	17.47
480.048	17.45
480.404	17.42
480.761	17.42
481.117	17.39
481.473	17.38
481.83	17.39
482.186	17.38
482.542	17.35
482.898	17.31
483.255	17.3
483.611	17.3
483.967	17.31
484.323	17.32
484.679	17.32
485.035	17.32
485.39	17.32
485.746	17.33
486.102	17.33
486.458	17.34
486.814	17.38
487.169	17.37
487.525	17.36
487.88	17.38
488.236	17.35
488.591	17.32
488.947	17.3
489.302	17.29
489.658	17.26
490.013	17.23
490.368	17.2
490.723	17.16
491.079	17.14
491.434	17.11
491.789	17.08
492.144	17.08
492.499	17.08
492.854	17.07
493.209	17.06
493.564	17.07
493.919	17.07
494.273	17.07
494.628	17.07
494.983	17.07
495.338	17.08
495.692	17.06
496.047	17.05
496.401	17.01
496.756	16.99
497.11	16.95
497.465	16.9
497.819	16.87
498.173	16.85
498.528	16.83
498.882	16.78
499.236	16.75
499.59	16.72
499.944	16.69
500.298	16.69
500.652	16.68
501.006	16.68
501.36	16.67
501.714	16.67
502.068	16.66
502.422	16.65
502.776	16.67
503.129	16.68
503.483	16.7
503.837	16.72
504.19	16.74
504.544	16.75
504.897	16.75
505.251	16.75
505.604	16.73
505.958	16.7
506.311	16.68
506.664	16.64
507.017	16.57
507.371	16.52
507.724	16.47
508.077	16.42
508.43	16.36
508.783	16.32
509.136	16.3
509.489	16.27
509.842	16.25
510.195	16.21
510.547	16.16
510.9	16.15
511.253	16.11
511.606	16.04
511.958	15.96
512.311	15.93
512.663	15.85
513.016	15.77
513.368	15.7
513.721	15.66
514.073	15.62
514.425	15.6
514.778	15.56
515.13	15.53
515.482	15.53
515.834	15.54
516.186	15.52
516.538	15.53
516.89	15.53
517.242	15.56
517.594	15.55
517.946	15.56
518.298	15.54
518.65	15.52
519.001	15.49
519.353	15.45
519.705	15.42
520.056	15.37
520.408	15.33
520.759	15.27
521.111	15.23
521.462	15.17
521.814	15.12
522.165	15.08
522.516	15.05
522.868	15.02
523.219	14.99
523.57	14.94
523.921	14.9
524.272	14.86
524.623	14.81
524.974	14.73
525.325	14.7
525.676	14.65
526.027	14.63
526.378	14.58
526.728	14.53
527.079	14.5
527.43	14.45
527.78	14.43
528.131	14.4
528.481	14.37
528.832	14.35
529.182	14.3
529.533	14.27
529.883	14.2
530.233	14.17
530.584	14.14
530.934	14.06
531.284	14
531.634	13.94
531.984	13.88
532.334	13.81
532.684	13.78
533.034	13.72
533.384	13.68
533.734	13.67
534.084	13.61
534.434	13.57
534.783	13.54
535.133	13.49
535.483	13.46
535.832	13.41
536.182	13.37
536.531	13.3
536.881	13.27
537.23	13.24
537.58	13.15
537.929	13.12
538.278	14.73
538.628	14.7
538.977	14.66
539.326	14.62
539.675	14.56
540.024	14.53
540.373	14.51
540.722	14.48
541.071	14.44
541.42	14.44
541.769	14.41
542.117	12.71
542.466	12.66
542.815	12.62
543.163	12.56
543.512	12.51
543.861	12.46
544.209	12.41
544.558	12.34
544.906	12.3
545.254	12.23
545.603	12.18
545.951	12.17
546.299	12.16
546.647	12.17
546.996	12.18
547.344	12.17
547.692	12.14
548.04	12.12
548.388	12.1
548.736	12.05
549.083	12.01
549.431	12
549.779	11.93
550.127	11.84
550.475	11.74
550.822	11.64
551.17	11.59
551.517	11.57
551.865	11.52
552.212	11.49
552.56	11.49
552.907	11.46
553.254	11.39
553.602	11.36
553.949	11.35
554.296	11.32
554.643	11.3
554.99	11.25
555.337	11.2
555.684	11.15
556.031	11.08
556.378	11.02
556.725	10.99
557.072	11
557.419	10.94
557.765	10.87
558.112	10.82
558.459	10.79
558.805	10.72
559.152	10.68
559.498	10.64
559.845	10.6
560.191	10.54
560.538	10.49
560.884	10.4
561.23	10.34
561.576	10.3
561.923	10.27
562.269	10.23
562.615	10.22
562.961	10.18
563.307	10.17
563.653	10.12
563.999	10.11
564.344	10.04
564.69	10
565.036	9.99
565.382	9.96
565.727	9.91
566.073	9.88
566.419	9.84
566.764	9.82
567.11	9.78
567.455	9.76
567.8	9.74
568.146	9.74
568.491	9.71
568.836	9.63
569.181	9.6
569.527	9.55
569.872	9.5
570.217	9.42
570.562	9.36
570.907	9.33
571.252	9.3
571.597	9.21
571.941	9.17
572.286	9.16
572.631	9.18
572.976	9.19
573.32	9.17
573.665	9.17
574.009	9.17
574.354	9.17
574.698	9.16
575.043	9.14
575.387	9.13
575.731	9.13
576.076	9.14
576.42	9.14
576.764	9.12
577.108	9.07
577.452	9.07
577.796	9.01
578.14	9.01
578.484	9
578.828	8.98
579.172	8.96
579.516	8.91
579.86	8.9
580.203	8.89
580.547	8.84
580.891	8.81
581.234	8.75
581.578	8.72
581.921	8.69
582.264	8.69
582.608	8.66
582.951	8.63
583.294	8.63
583.638	8.61
583.981	8.58
584.324	8.58
584.667	8.58
585.01	8.57
585.353	8.56
585.696	8.56
586.039	8.55
586.382	8.52
586.725	8.52
587.067	8.52
587.41	8.51
587.753	8.51
588.095	8.5
588.438	8.52
588.781	8.54
589.123	8.53
589.465	8.51
589.808	8.5
590.15	8.48
590.492	8.47
590.835	8.45
591.177	8.45
591.519	8.4
591.861	8.38
592.203	8.36
592.545	8.36
592.887	8.35
593.229	8.34
593.571	8.3
593.913	8.28
594.254	8.26
594.596	8.23
594.938	8.21
595.279	8.2
595.621	8.17
595.963	8.13
596.304	8.12
596.645	8.12
596.987	8.1
597.328	8.09
597.669	8.09
598.011	8.07
598.352	8.06
598.693	8.05
599.034	8.04
599.375	8.04
599.716	8.04
600.057	8.04
600.398	8.04
600.739	8.05
601.08	8.06
601.42	8.06
601.761	8.06
602.102	8.1
602.442	8.11
602.783	8.1
603.123	8.08
603.464	8.07
603.804	8.05
604.145	8.04
604.485	7.98
604.825	7.97
605.166	7.95
605.506	7.95
605.846	7.95
606.186	7.94
606.526	7.93
606.866	7.9
607.206	7.88
607.546	7.84
607.886	7.8
608.225	7.75
608.565	7.72
608.905	7.68
609.245	7.66
609.584	7.59
609.924	7.58
610.263	7.58
610.603	7.58
610.942	7.56
611.281	7.54
611.621	7.51
611.96	7.48
612.299	7.48
612.638	7.49
612.978	7.5
613.317	7.5
613.656	7.49
613.995	7.47
614.334	7.47
614.672	7.46
615.011	7.41
615.35	7.42
615.689	7.42
616.027	7.41
616.366	7.4
616.705	7.39
617.043	7.36
617.382	7.33
617.72	7.34
618.059	7.26
618.397	7.26
618.735	7.26
619.073	7.29
619.412	7.31
619.75	7.28
620.088	7.27
620.426	7.26
620.764	7.19
621.102	7.19
621.44	7.18
621.778	7.18
622.115	7.17
622.453	7.19
622.791	7.23
623.129	7.18
623.466	7.17
623.804	7.16
624.141	7.14
624.479	7.15
624.816	7.15
625.153	7.12
625.491	7.11
625.828	7.09
626.165	7.06
626.502	7.06
626.84	7.04
627.177	7
627.514	6.98
627.851	6.95
628.188	6.9
628.524	6.83
628.861	6.84
629.198	6.83
629.535	6.8
629.871	6.79
630.208	6.79
630.545	6.78
630.881	6.75
631.218	6.71
631.554	6.7
631.89	6.72
632.227	6.74
632.563	6.74
632.899	6.72
633.235	6.72
633.572	6.68
633.908	6.67
634.244	6.66
634.58	6.68
634.916	6.68
635.251	6.7
635.587	6.63
635.923	6.6
636.259	6.55
636.595	6.55
636.93	6.54
637.266	6.59
637.601	6.56
637.937	6.49
638.272	6.42
638.608	6.44
638.943	6.38
639.278	6.4
639.613	6.33
639.949	6.33
640.284	6.29
640.619	6.29
640.954	6.23
641.289	6.26
641.624	6.26
641.959	6.25
642.294	6.19
642.628	6.15
642.963	6.16
643.298	6.16
643.632	6.24
643.967	6.21
644.302	6.15
644.636	6.19
644.971	6.09
645.305	6.13
645.639	6.14
645.974	6.15
646.308	6.16
646.642	6.07
646.976	6.07
647.31	6.01
647.644	6.02
647.978	6.04
648.312	6.01
648.646	6.06
648.98	6.04
649.314	5.99
649.647	5.97
649.981	5.94
650.315	5.94
650.648	5.93
650.982	5.87
651.315	5.84
651.649	5.83
651.982	5.8
652.316	5.76
652.649	5.72
652.982	5.77
653.315	5.81
653.648	5.87
653.982	5.91
654.315	5.9
654.648	5.92
654.981	5.95
655.313	5.92
655.646	5.86
655.979	5.85
656.312	5.82
656.644	5.8
656.977	5.72
657.31	5.62
657.642	5.48
657.975	5.4
658.307	5.33
658.64	5.31
658.972	5.28
659.304	5.3
659.636	5.26
659.969	5.24
660.301	5.17
660.633	5.19
660.965	5.21
661.297	5.38
661.629	5.44
661.961	5.41
662.292	5.36
662.624	5.32
662.956	5.31
663.288	5.33
663.619	5.36
663.951	5.38
664.282	5.41
664.614	5.41
664.945	5.28
665.276	5.27
665.608	5.33
665.939	5.3
666.27	5.32
666.601	5.35
666.933	5.37
667.264	5.4
667.595	5.42
667.926	5.32
668.256	5.28
668.587	5.28
668.918	5.31
669.249	5.31
669.58	5.36
669.91	5.34
670.241	5.25
670.571	5.21
670.902	5.1
671.232	5.12
671.563	5.12
671.893	5.14
672.223	5.09
672.554	5
672.884	4.95
673.214	4.91
673.544	4.93
673.874	4.91
674.204	4.97
674.534	4.98
674.864	4.98
675.194	5.02
675.524	5.03
675.853	5.11
676.183	5.14
676.513	5.24
676.842	5.28
677.172	5.36
677.501	5.45
677.831	5.38
678.16	5.41
678.489	5.41
678.819	5.52
679.148	5.53
679.477	5.48
679.806	5.47
680.135	5.31
680.464	5.28
680.793	5.15
681.122	5.09
681.451	5.06
681.78	4.97
682.108	4.91
682.437	4.7
682.766	4.65
683.094	4.56
683.423	4.46
683.751	4.57
684.08	4.56
684.408	4.59
684.737	4.6
685.065	4.59
685.393	4.69
685.721	4.69
686.049	4.78
686.377	4.75
686.705	4.85
687.033	4.98
687.361	4.85
687.689	4.88
688.017	4.91
688.345	4.9
688.673	4.9
689.0	4.92
689.328	4.89
689.655	4.89
689.983	4.99
690.31	4.95
690.638	4.92
690.965	4.99
691.292	5.02
691.62	5
691.947	5.01
692.274	4.98
692.601	4.96
692.928	4.97
693.255	4.83
693.582	4.68
693.909	4.74
694.236	4.69
694.562	4.64
694.889	4.59
695.216	4.56
695.542	4.65
695.869	4.68
696.196	4.76
696.522	4.73
696.848	4.81
697.175	4.9
697.501	4.74
697.827	4.7
698.154	4.75
698.48	4.78
698.806	4.83
699.132	4.73
699.458	4.77
699.784	4.69
700.11	4.66
700.435	4.64
700.761	4.58
701.087	4.66
701.413	4.72
701.738	4.73
702.064	4.63
702.389	4.55
702.715	4.49
703.04	4.41
703.366	4.37
703.691	4.41
704.016	4.49
704.341	4.56
704.666	4.59
704.992	4.48
705.317	4.47
705.642	4.62
705.967	4.66
706.291	4.71
706.616	4.74
706.941	4.81
707.266	4.92
707.59	4.88
707.915	4.85
708.24	4.77
708.564	4.74
708.889	4.64
709.213	4.4
709.537	4.21
709.862	4.14
710.186	4.11
710.51	4
710.834	3.87
711.158	3.81
711.482	3.77
711.806	3.8
712.13	3.85
712.454	3.88
712.778	4.1
713.102	4.28
713.426	4.38
713.749	4.52
714.073	4.61
714.396	4.64
714.72	4.73
715.043	4.78
715.367	4.86
715.69	4.86
716.013	4.81
716.337	4.75
716.66	4.86
716.983	4.9
717.306	4.89
717.629	4.86
717.952	4.83
718.275	4.74
718.598	4.63
718.921	4.62
719.243	4.83
719.566	4.95
719.889	5.06
720.211	4.98
720.534	4.93
720.856	4.79
721.179	4.79
721.501	4.97
721.823	5
722.146	5.03
722.468	4.88
722.79	4.6
723.112	4.57
723.434	4.43
723.756	4.46
724.078	4.5
724.4	4.44
724.722	4.51
725.044	4.32
725.366	4.19
725.687	4.24
726.009	4.34
726.33	4.32
726.652	4.27
726.973	4.31
727.295	4.02
727.616	3.82
727.938	3.95
728.259	3.99
728.58	4.08
728.901	4.19
729.222	4.23
729.543	4.21
729.864	4.33
730.185	4.23
730.506	3.98
730.827	4.32
731.148	4.37
731.468	4.33
731.789	4.1
732.11	4.03
732.43	4.21
732.751	4.27
733.071	4.19
733.392	4.17
733.712	4.53
734.032	4.82
734.352	4.6
734.673	4.48
734.993	4.39
735.313	4.51
735.633	4.88
735.953	4.62
736.273	4.6
736.593	4.67
736.912	4.67
737.232	4.47
737.552	4.44
737.871	4.4
738.191	4.86
738.51	5.2
738.83	5.25
739.149	5
739.469	5.13
739.788	5.18
740.107	5.22
740.426	5.4
740.746	5.46
741.065	5.35
741.384	5.47
741.703	5.32
742.022	5.09
742.341	4.89
742.659	5
742.978	5.03
743.297	4.66
743.615	4.61
743.934	4.34
744.253	4.24
744.571	4.38
744.89	4.49
745.208	4.49
745.526	4.5
745.845	4.65
746.163	4.38
746.481	4.7
746.799	5.03
747.117	4.8
747.435	4.97
747.753	4.82
748.071	4.66
748.389	4.32
748.706	4.09
749.024	3.88
749.342	3.94
749.659	4.23
749.977	3.56
750.295	3.58
750.612	3.82
750.929	3.64
751.247	3.83
751.564	4.03
751.881	4.24
752.198	4.41
752.516	4.72
752.833	4.64
753.15	4.28
753.467	4.6
753.783	4.6
754.1	4.77
754.417	4.87
754.734	4.87
755.05	4.83
755.367	4.82
755.684	5.06
756.0	4.88
756.317	4.88
756.633	5.19
756.949	5.14
757.266	5.05
757.582	4.96
757.898	5.2
758.214	5.18
758.53	5.27
758.846	5.21
759.162	4.87
759.478	4.88
759.794	5.06
760.11	4.79
760.426	4.67
760.741	4.71
761.057	4.44
761.372	4.2
761.688	4.25
762.003	4.31
762.319	4.45
762.634	4.46
762.949	4.43
763.265	4.13
763.58	4.24
763.895	4.27
764.21	4.01
764.525	4.34
764.84	4.07
765.155	3.98
765.47	3.63
765.785	3.58
766.099	3.68
766.414	3.6
766.729	3.67
767.043	3.56
767.358	3.54
767.672	3.94
767.987	3.77
768.301	4.5
768.615	4.56
768.929	4.88
769.244	5.01
769.558	5.22
769.872	5.52
770.186	5.78
770.5	5.8
770.814	5.85
771.127	5.8
771.441	5.55
771.755	5.17
772.069	4.83
772.382	5.16
772.696	5.18
773.009	4.71
773.323	4.45
773.636	4.19
773.95	4.02
774.263	3.88
774.576	3.62
774.889	4.2
775.202	4.43
775.515	4.92
775.828	4.29
776.141	4.22
776.454	4.32
776.767	4
777.08	4.02
777.393	4.48
777.705	4.93
778.018	4.65
778.33	4.05
778.643	3.48
778.955	3.51
779.268	3.97
779.58	3.92
779.892	4.07
780.205	4.87
780.517	5.24
780.829	5.24
781.141	5.24
781.453	5.91
781.765	6.32
782.077	6.52
782.388	6.12
782.7	5.32
783.012	5.77
783.324	5.47
783.635	5.48
783.947	4.91
784.258	4.86
784.57	4.69
784.881	3.94
785.192	4.53
785.504	4.68
785.815	4.97
786.126	5.15
786.437	5.09
786.748	4.68
787.059	4.41
787.37	4.64
787.681	4.53
787.992	4.76
788.302	5.48
788.613	5.13
788.924	4.71
789.234	4.9
789.545	5.28
789.855	4.68
790.166	5.35
790.476	4.98
790.786	4.66
791.096	4.63
791.407	4.54
791.717	4.11
792.027	3.72
792.337	3.97
792.647	3.79
792.957	3.45
793.266	3.98
793.576	4.03
793.886	4.67
794.196	5.26
794.505	9.3
794.815	9.31
795.124	9.51
795.434	9.94
795.743	10.11
796.052	9.65
796.362	9.88
796.671	9.93
796.98	10.35
797.289	9.96
797.598	9.5
797.907	5.32
798.216	5.58
798.525	5.72
798.834	4.94
799.142	5.33
799.451	5.92
799.76	5.85
800.068	5.4
800.377	4.49
800.685	4.57
800.994	4.78
801.302	4.75
801.61	4.29
801.918	3.95
802.227	3.95
802.535	3.04
802.843	3.18
803.151	2.5
803.459	2.4
803.767	2.42
804.074	2.69
804.382	2.98
804.69	4.77
804.998	5.19
805.305	5.61
805.613	6.05
805.92	6.12
806.228	6.05
806.535	6.44
806.842	6.62
807.15	6.9
807.457	6.56
807.764	6.18
808.071	4.87
808.378	5.47
808.685	5.27
808.992	5.26
809.299	5.2
809.605	6.16
809.912	6.83
810.219	5.69
810.525	6.16
810.832	6.99
811.138	7.22
811.445	7.35
811.751	5.8
812.058	5.78
812.364	5.98
812.67	6.4
812.976	5.27
813.282	5.63
813.588	6.61
813.894	6.83
814.2	5.55
814.506	5.11
814.812	5
815.118	5.68
815.423	5.99
815.729	5.37
816.035	5.46
816.34	5.69
816.646	4.76
816.951	4.48
817.256	3.44
817.562	4.49
817.867	4.97
818.172	4.38
818.477	4.06
818.782	4.58
819.087	5.17
819.392	5.37
819.697	5.15
820.002	5.28
820.306	5.54
820.611	5.44
820.916	5.41
821.22	5.32
821.525	5.14
821.829	5.15
822.134	4.63
822.438	4.66
822.742	4.33
823.047	4.38
823.351	4.42
823.655	4.37
823.959	4.34
824.263	4.24
824.567	4.38
824.871	4.39
825.174	4.3
825.478	5.35
825.782	5.17
826.086	5.31
826.389	5.48
826.693	5.51
826.996	5.5
827.3	5.62
827.603	5.63
827.906	5.38
828.209	5.28
828.513	5.2
828.816	4.12
829.119	4.17
829.422	4.05
829.725	3.83
830.028	3.73
830.33	4.2
830.633	4.64
830.936	4.43
831.238	4.71
831.541	4.97
831.844	5.08
832.146	4.3
832.448	4.3
832.751	4.82
833.053	4.88
833.355	5.69
833.657	5.33
833.96	4.77
834.262	5.01
834.564	4.63
834.865	4.89
835.167	6.14
835.469	6.51
835.771	6.36
836.073	6.36
836.374	6.22
836.676	5.91
836.977	5.75
837.279	5.75
837.58	6.22
837.882	6.95
838.183	6.43
838.484	5.79
838.785	6.34
839.086	7.2
839.387	6.76
839.688	6.78
839.989	6.45
840.29	6.54
840.591	6.61
840.892	5.61
841.192	5.46
841.493	5.42
841.794	5.87
842.094	5.58
842.394	5.16
842.695	19.39
842.995	21.36
843.295	21.2
843.596	22.33
843.896	24.02
844.196	26.72
844.496	27.65
844.796	28.61
845.096	28.07
845.396	27.84
845.695	27.85
845.995	8.37
846.295	6.96
846.594	9.69
846.894	10.31
847.194	9.72
847.493	8.66
847.792	8.37
848.092	8.2
848.391	7.82
848.69	9.66
848.989	11.32
849.288	11.21
849.587	12.07
849.886	11.41
850.185	10.55
850.484	12.71
850.783	14.26
851.081	14.24
851.38	14.92
851.679	15.73
851.977	14.71
852.276	14.55
852.574	12.51
852.872	12.14
853.171	10.9
853.469	8.56
853.767	5.79
854.065	5.43
854.363	8.2
854.661	9.41
854.959	10.03
855.257	10.82
855.555	11.63
855.853	11.63
856.15	11.06
856.448	10.52
856.746	11.45
857.043	11.34
857.341	12.94
857.638	15.54
857.935	13.4
858.233	12.37
858.53	12.15
858.827	12.11
859.124	15.46
859.421	16.48
859.718	18.38
860.015	19.74
860.312	20.44
860.609	17.61
860.905	13.4
861.202	15.35
861.499	14.86
861.795	17.12
862.092	18.09
862.388	16.03
862.684	16.92
862.981	15.85
863.277	16.36
863.573	16.83
863.869	16.35
864.165	12.25
864.461	10.52
864.757	12.53
865.053	9.07
865.349	5.96
865.645	5.3
865.94	2.64
866.236	5.49
866.532	3.83
866.827	3.15
867.123	2.16
867.418	6.79
867.713	10.24
868.009	9.38
868.304	9.99
868.599	13.79
868.894	12.72
869.189	14.52
869.484	12.74
869.779	12.37
870.074	11.03
870.369	13.53
870.663	11.38
870.958	6.22
871.252	6.09
871.547	7.92
871.842	5.43
872.136	9.58
872.43	8.28
872.725	8.58
873.019	10.99
873.313	13.88
873.607	14.85
873.901	13.04
874.195	16.4
874.489	17.7
874.783	15.16
875.077	11.48
875.37	8.85
875.664	7.59
875.958	6.18
876.251	5.61
876.545	4.61
876.838	4.61
877.132	2.83
877.425	4.41
877.718	4.71
878.011	5.63
878.305	12.48
878.598	12.53
878.891	13.46
879.184	15.79
879.476	17.56
879.769	17.48
880.062	17.1
880.355	13.24
880.647	8.84
880.94	5.64
881.232	6.17
881.525	4.73
881.817	2.19
882.11	4.24
882.402	4.3
882.694	3.78
882.986	3.69
883.278	5.37
883.57	7.08
883.862	7.78
884.154	7.77
884.446	7.75
884.738	7.63
885.03	8.87
885.321	8.63
885.613	8.35
885.904	7.93
886.196	8.28
886.487	9.15
886.779	8.8
887.07	8.53
887.361	8.91
887.652	8.67
887.943	8.15
888.234	7.75
888.525	8.39
888.816	9.32
889.107	11.05
889.398	12.27
889.689	11.92
889.979	13.34
890.27	15.38
890.56	17.12
890.851	19.06
891.141	22.49
891.432	24.72
891.722	25.65
