Data from groin2_Reflection__2__15-26-42-832.txt Node

Date: Thu Aug 04 15:26:42 AEST 2022
User: kathy
Spectrometer: JAZA2503
Trigger mode: 0
Integration Time (sec): 2.439700E-1
Scans to average: 10
Electric dark correction enabled: true
Nonlinearity correction enabled: true
Boxcar width: 5
XAxis mode: Wavelengths
Number of Pixels in Spectrum: 2048
>>>>>Begin Spectral Data<<<<<
189.467	357.97
189.852	269.95
190.237	295.23
190.622	280.43
191.007	265.6
191.392	135.89
191.777	58.94
192.162	88.41
192.546	159.06
192.931	-63.11
193.316	203.8
193.701	257.4
194.086	236.59
194.47	183.93
194.855	-2739.9
195.24	-10.5
195.624	119.59
196.009	63.59
196.393	124.6
196.778	227.53
197.163	86.53
197.547	55.81
197.931	27.4
198.316	33.8
198.7	41.17
199.085	46.64
199.469	58.56
199.853	52.4
200.237	46.46
200.622	46.86
201.006	51.63
201.39	46.94
201.774	45.41
202.158	53.25
202.542	51.02
202.926	46.3
203.31	42.07
203.694	34.23
204.078	29.62
204.462	38.03
204.846	35.16
205.23	31.8
205.614	29.88
205.998	30.91
206.381	25.18
206.765	25.98
207.149	25.9
207.532	28.48
207.916	25.14
208.3	26.44
208.683	21.84
209.067	24.13
209.45	18.28
209.834	23.06
210.217	25.08
210.601	25
210.984	25.42
211.367	27.95
211.751	25.06
212.134	25.51
212.517	26.99
212.901	26.78
213.284	29.18
213.667	28.25
214.05	26.62
214.433	23.46
214.816	25.02
215.199	22.89
215.582	21.42
215.965	17.6
216.348	20.87
216.731	19.11
217.114	10.55
217.497	4.39
217.88	8.21
218.262	4.45
218.645	4.25
219.028	7.41
219.411	7.33
219.793	11.07
220.176	12.52
220.559	12.99
220.941	13.13
221.324	18.95
221.706	24.66
222.089	24.93
222.471	25.15
222.853	22.28
223.236	19.8
223.618	18.18
224	15.39
224.383	15.75
224.765	12.92
225.147	10.47
225.529	8.91
225.912	5.26
226.294	3.8
226.676	2.06
227.058	1.95
227.44	1.99
227.822	2.39
228.204	2.89
228.586	2.21
228.968	2.18
229.349	2.57
229.731	2.87
230.113	2.73
230.495	2.77
230.877	3.3
231.258	3.73
231.64	3.89
232.022	3.57
232.403	3.26
232.785	3.74
233.166	3.48
233.548	2.95
233.929	2.46
234.311	2.81
234.692	2.82
235.073	2.61
235.455	2.43
235.836	2.73
236.217	2.53
236.599	2.7
236.98	2.77
237.361	2.81
237.742	2.74
238.123	2.54
238.504	2.49
238.885	2.38
239.266	2.35
239.647	2.24
240.028	1.91
240.409	1.99
240.79	1.91
241.171	1.7
241.552	1.76
241.933	1.88
242.313	2.09
242.694	1.95
243.075	1.94
243.456	1.81
243.836	1.78
244.217	1.93
244.597	1.92
244.978	1.87
245.358	2
245.739	1.98
246.119	2.01
246.5	1.97
246.88	1.92
247.26	1.81
247.641	1.74
248.021	1.81
248.401	1.68
248.781	1.7
249.162	1.77
249.542	1.72
249.922	1.73
250.302	1.81
250.682	1.7
251.062	1.63
251.442	1.7
251.822	1.75
252.202	1.65
252.582	1.52
252.961	1.66
253.341	1.68
253.721	1.68
254.101	1.7
254.48	1.55
254.86	1.6
255.24	1.94
255.619	2.07
255.999	2.27
256.378	2.18
256.758	2.3
257.137	2.05
257.517	1.84
257.896	1.64
258.276	1.61
258.655	1.3
259.034	1.17
259.414	0.98
259.793	0.97
260.172	0.91
260.551	0.95
260.93	0.87
261.309	0.91
261.688	0.88
262.068	0.92
262.447	0.9
262.825	1.08
263.204	1.03
263.583	1.04
263.962	0.95
264.341	0.96
264.72	0.85
265.099	0.89
265.477	0.89
265.856	0.87
266.235	0.87
266.613	0.87
266.992	0.82
267.371	0.95
267.749	1.02
268.128	0.95
268.506	0.93
268.884	1.13
269.263	1.17
269.641	1.08
270.02	1.11
270.398	1.11
270.776	1.1
271.154	1.09
271.533	1.15
271.911	1.11
272.289	1.14
272.667	1.15
273.045	1.04
273.423	1.04
273.801	1.08
274.179	1.05
274.557	1.06
274.935	0.96
275.313	0.96
275.69	0.95
276.068	0.99
276.446	1.05
276.824	1.01
277.201	1.01
277.579	1.01
277.957	0.99
278.334	1.04
278.712	0.95
279.089	0.96
279.467	0.9
279.844	0.89
280.222	0.82
280.599	0.78
280.976	0.86
281.354	0.84
281.731	0.8
282.108	0.88
282.485	0.81
282.863	0.87
283.24	0.93
283.617	0.99
283.994	0.95
284.371	0.93
284.748	0.95
285.125	0.9
285.502	0.88
285.879	0.86
286.256	0.8
286.633	0.92
287.009	0.96
287.386	0.97
287.763	0.99
288.139	1.01
288.516	1.07
288.893	1.07
289.269	1.1
289.646	1.15
290.022	1.24
290.399	1.29
290.775	1.28
291.152	1.31
291.528	1.35
291.904	1.33
292.281	1.38
292.657	1.38
293.033	1.41
293.41	1.49
293.786	1.52
294.162	1.51
294.538	1.51
294.914	1.55
295.29	1.59
295.666	1.62
296.042	1.68
296.418	1.77
296.794	1.83
297.17	1.9
297.546	1.95
297.921	2.01
298.297	2.07
298.673	2.14
299.048	2.2
299.424	2.27
299.8	2.36
300.175	2.43
300.551	2.48
300.926	2.55
301.302	2.6
301.677	2.63
302.053	2.72
302.428	2.79
302.803	2.86
303.179	2.94
303.554	2.98
303.929	3.02
304.304	3.1
304.68	3.12
305.055	3.19
305.43	3.23
305.805	3.31
306.18	3.3
306.555	3.36
306.93	3.46
307.305	3.46
307.679	3.48
308.054	3.48
308.429	3.49
308.804	3.5
309.179	3.53
309.553	3.53
309.928	3.52
310.303	3.57
310.677	3.62
311.052	3.56
311.426	3.59
311.801	3.64
312.175	3.68
312.55	3.72
312.924	3.76
313.298	3.78
313.673	3.84
314.047	3.91
314.421	3.93
314.795	3.92
315.17	3.95
315.544	4
315.918	3.99
316.292	4.08
316.666	4.15
317.04	4.26
317.414	4.34
317.788	4.47
318.162	4.6
318.535	4.74
318.909	4.87
319.283	5.04
319.657	5.16
320.03	5.36
320.404	5.56
320.778	5.82
321.151	6.1
321.525	6.53
321.898	7.1
322.272	7.63
322.645	8.26
323.019	8.92
323.392	9.75
323.765	10.6
324.139	11.48
324.512	12.54
324.885	13.5
325.258	14.53
325.632	15.36
326.005	16.03
326.378	16.56
326.751	16.96
327.124	17.3
327.497	17.41
327.87	17.62
328.243	17.75
328.616	17.83
328.988	17.95
329.361	17.98
329.734	18
330.107	17.97
330.479	17.9
330.852	17.76
331.225	17.69
331.597	17.6
331.97	17.42
332.342	17.25
332.715	17.08
333.087	16.89
333.46	16.71
333.832	16.57
334.204	16.57
334.577	16.52
334.949	16.55
335.321	16.51
335.693	16.39
336.065	16.22
336.438	16.06
336.81	15.91
337.182	15.74
337.554	15.58
337.926	15.52
338.298	15.41
338.669	15.27
339.041	15.15
339.413	15.1
339.785	15.02
340.157	14.98
340.528	14.94
340.9	14.91
341.272	14.82
341.643	14.79
342.015	14.8
342.386	14.85
342.758	14.99
343.129	15.15
343.501	15.25
343.872	15.33
344.243	15.34
344.615	15.3
344.986	15.23
345.357	15.26
345.728	15.23
346.099	15.23
346.471	15.2
346.842	15.24
347.213	15.21
347.584	15.21
347.955	15.2
348.326	15.18
348.697	15.13
349.067	15.13
349.438	15.15
349.809	15.22
350.18	15.36
350.55	15.41
350.921	15.49
351.292	15.57
351.662	15.62
352.033	15.67
352.403	15.72
352.774	15.73
353.144	15.81
353.515	15.83
353.885	15.83
354.255	15.82
354.626	15.84
354.996	15.81
355.366	15.8
355.736	15.8
356.107	15.8
356.477	15.8
356.847	15.83
357.217	15.8
357.587	15.82
357.957	15.86
358.327	15.89
358.697	15.89
359.066	15.92
359.436	15.95
359.806	15.99
360.176	16.03
360.546	16.05
360.915	16.08
361.285	16.11
361.654	16.1
362.024	16.06
362.393	16.05
362.763	16.06
363.132	16.05
363.502	16.05
363.871	16.03
364.24	16.02
364.61	16.01
364.979	16.01
365.348	16
365.717	16.01
366.087	16.02
366.456	16.04
366.825	16.04
367.194	16.08
367.563	16.1
367.932	16.12
368.301	16.15
368.669	16.17
369.038	16.15
369.407	16.17
369.776	16.16
370.145	16.17
370.513	16.17
370.882	16.2
371.25	16.18
371.619	16.16
371.988	16.14
372.356	16.11
372.724	16.07
373.093	16.05
373.461	16.01
373.83	16.01
374.198	15.99
374.566	15.94
374.934	15.9
375.303	15.88
375.671	15.86
376.039	15.84
376.407	15.83
376.775	15.81
377.143	15.83
377.511	15.84
377.879	15.82
378.247	15.82
378.615	15.85
378.982	15.84
379.35	15.8
379.718	15.8
380.086	15.79
380.453	15.8
380.821	15.79
381.188	15.78
381.556	15.78
381.923	15.78
382.291	15.77
382.658	15.75
383.026	15.75
383.393	15.75
383.76	15.73
384.128	15.74
384.495	15.74
384.862	15.73
385.229	15.69
385.596	15.64
385.963	15.62
386.33	15.61
386.697	15.61
387.064	15.57
387.431	15.57
387.798	15.54
388.165	15.53
388.532	15.49
388.899	15.49
389.265	15.52
389.632	15.53
389.999	15.51
390.365	15.49
390.732	15.49
391.098	15.48
391.465	15.48
391.831	15.5
392.198	15.48
392.564	15.47
392.93	15.48
393.297	15.48
393.663	15.48
394.029	15.5
394.395	15.53
394.762	15.54
395.128	15.55
395.494	15.56
395.86	15.58
396.226	15.62
396.592	15.66
396.958	15.68
397.323	15.7
397.689	15.72
398.055	15.74
398.421	15.77
398.787	15.78
399.152	15.79
399.518	15.82
399.883	15.83
400.249	15.86
400.615	15.85
400.98	15.84
401.345	15.83
401.711	15.85
402.076	15.83
402.442	15.82
402.807	15.84
403.172	15.85
403.537	15.82
403.902	15.82
404.268	15.8
404.633	15.8
404.998	15.79
405.363	15.81
405.728	15.81
406.093	15.83
406.457	15.82
406.822	15.82
407.187	15.85
407.552	15.9
407.917	15.91
408.281	15.9
408.646	15.92
409.011	15.96
409.375	15.98
409.74	15.97
410.104	15.96
410.469	15.96
410.833	15.97
411.197	15.95
411.562	15.93
411.926	15.93
412.29	15.96
412.655	15.96
413.019	15.93
413.383	15.95
413.747	15.96
414.111	15.97
414.475	15.99
414.839	16
415.203	16.04
415.567	16.06
415.931	16.1
416.295	16.12
416.658	16.12
417.022	16.13
417.386	16.11
417.749	16.12
418.113	16.1
418.477	16.09
418.84	16.1
419.204	16.11
419.567	16.1
419.931	16.09
420.294	16.1
420.657	16.12
421.021	16.14
421.384	16.18
421.747	16.2
422.11	16.27
422.473	16.31
422.836	16.33
423.199	16.34
423.562	16.36
423.925	16.36
424.288	16.37
424.651	16.37
425.014	16.39
425.377	16.41
425.74	16.42
426.102	16.41
426.465	16.44
426.828	16.45
427.19	16.47
427.553	16.49
427.916	16.5
428.278	16.51
428.641	16.52
429.003	16.51
429.365	16.48
429.728	16.47
430.09	16.43
430.452	16.38
430.814	16.38
431.177	16.36
431.539	16.34
431.901	16.37
432.263	16.38
432.625	16.41
432.987	16.42
433.349	16.47
433.711	16.51
434.072	16.57
434.434	16.61
434.796	16.62
435.158	16.68
435.519	16.73
435.881	16.74
436.243	16.75
436.604	16.74
436.966	16.74
437.327	16.74
437.689	16.75
438.05	16.71
438.411	16.71
438.773	16.75
439.134	16.73
439.495	16.73
439.856	16.74
440.218	16.76
440.579	16.74
440.94	16.77
441.301	16.79
441.662	16.8
442.023	16.83
442.384	16.85
442.745	16.84
443.105	16.85
443.466	16.87
443.827	16.89
444.188	16.89
444.548	16.91
444.909	16.92
445.269	16.92
445.63	16.91
445.99	16.94
446.351	16.98
446.711	17
447.072	17.02
447.432	17.02
447.792	17.02
448.153	17.02
448.513	17.04
448.873	17.04
449.233	17.02
449.593	17.03
449.953	17
450.313	16.98
450.673	17.01
451.033	16.99
451.393	16.99
451.753	17
452.113	17.44
452.472	17.42
452.832	17.39
453.192	17.36
453.551	17.33
453.911	17.3
454.271	17.25
454.63	17.19
454.989	17.17
455.349	17.13
455.708	17.13
456.068	16.9
456.427	16.91
456.786	16.94
457.145	16.98
457.505	17.01
457.864	17.06
458.223	17.14
458.582	17.22
458.941	17.3
459.3	17.38
459.659	17.42
460.018	17.48
460.376	17.51
460.735	17.54
461.094	17.55
461.453	17.56
461.811	17.57
462.17	17.57
462.529	17.56
462.887	17.53
463.246	17.52
463.604	17.52
463.963	17.51
464.321	17.4
464.679	17.4
465.038	17.42
465.396	17.43
465.754	17.44
466.112	17.44
466.47	17.46
466.828	17.48
467.186	17.5
467.544	17.5
467.902	17.53
468.26	17.67
468.618	17.67
468.976	17.67
469.334	17.68
469.692	17.66
470.049	17.63
470.407	17.58
470.765	17.55
471.122	17.53
471.48	17.54
471.837	17.54
472.195	17.56
472.552	17.58
472.909	17.59
473.267	17.59
473.624	17.59
473.981	17.61
474.338	17.63
474.696	17.64
475.053	17.63
475.41	17.61
475.767	17.6
476.124	17.59
476.481	17.57
476.838	17.55
477.194	17.52
477.551	17.52
477.908	17.51
478.265	17.52
478.621	17.51
478.978	17.5
479.335	17.52
479.691	17.51
480.048	17.48
480.404	17.48
480.761	17.48
481.117	17.5
481.473	17.46
481.83	17.44
482.186	17.42
482.542	17.41
482.898	17.39
483.255	17.36
483.611	17.35
483.967	17.35
484.323	17.35
484.679	17.34
485.035	17.32
485.39	17.33
485.746	17.34
486.102	17.34
486.458	17.34
486.814	17.38
487.169	17.38
487.525	17.4
487.88	17.39
488.236	17.38
488.591	17.36
488.947	17.34
489.302	17.34
489.658	17.32
490.013	17.29
490.368	17.25
490.723	17.21
491.079	17.2
491.434	17.16
491.789	17.17
492.144	17.14
492.499	17.14
492.854	17.14
493.209	17.14
493.564	17.14
493.919	17.14
494.273	17.15
494.628	17.15
494.983	17.14
495.338	17.14
495.692	17.11
496.047	17.09
496.401	17.08
496.756	17.03
497.11	16.99
497.465	16.97
497.819	16.93
498.173	16.89
498.528	16.86
498.882	16.82
499.236	16.81
499.59	16.78
499.944	16.76
500.298	16.73
500.652	16.73
501.006	16.73
501.36	16.72
501.714	16.72
502.068	16.7
502.422	16.7
502.776	16.72
503.129	16.73
503.483	16.75
503.837	16.79
504.19	16.8
504.544	16.81
504.897	16.8
505.251	16.77
505.604	16.76
505.958	16.74
506.311	16.7
506.664	16.65
507.017	16.58
507.371	16.53
507.724	16.45
508.077	16.39
508.43	16.34
508.783	16.32
509.136	16.3
509.489	16.26
509.842	16.25
510.195	16.23
510.547	16.21
510.9	16.19
511.253	16.13
511.606	16.08
511.958	16.03
512.311	15.96
512.663	15.87
513.016	15.8
513.368	15.75
513.721	15.69
514.073	15.63
514.425	15.59
514.778	15.55
515.13	15.54
515.482	15.52
515.834	15.51
516.186	15.51
516.538	15.52
516.89	15.55
517.242	15.56
517.594	15.57
517.946	15.6
518.298	15.6
518.65	15.6
519.001	15.58
519.353	15.56
519.705	15.55
520.056	15.51
520.408	15.46
520.759	15.4
521.111	15.35
521.462	15.31
521.814	15.26
522.165	15.21
522.516	15.16
522.868	15.12
523.219	15.07
523.57	15
523.921	14.93
524.272	14.9
524.623	14.84
524.974	14.77
525.325	14.71
525.676	14.65
526.027	14.62
526.378	14.56
526.728	14.5
527.079	14.5
527.43	14.49
527.78	14.48
528.131	14.43
528.481	14.42
528.832	14.4
529.182	14.36
529.533	14.33
529.883	14.3
530.233	14.27
530.584	14.25
530.934	14.17
531.284	14.12
531.634	14.04
531.984	14.01
532.334	13.94
532.684	13.89
533.034	13.81
533.384	13.76
533.734	13.7
534.084	13.62
534.434	13.55
534.783	13.52
535.133	13.47
535.483	13.44
535.832	13.41
536.182	13.38
536.531	13.33
536.881	13.32
537.23	13.3
537.58	13.26
537.929	13.22
538.278	14.87
538.628	14.86
538.977	14.8
539.326	14.75
539.675	14.68
540.024	14.62
540.373	14.57
540.722	14.52
541.071	14.5
541.42	14.49
541.769	14.49
542.117	12.79
542.466	12.7
542.815	12.66
543.163	12.63
543.512	12.58
543.861	12.54
544.209	12.52
544.558	12.46
544.906	12.4
545.254	12.32
545.603	12.27
545.951	12.22
546.299	12.22
546.647	12.23
546.996	12.19
547.344	12.16
547.692	12.13
548.04	12.08
548.388	12.06
548.736	12.04
549.083	12.01
549.431	11.96
549.779	11.92
550.127	11.84
550.475	11.74
550.822	11.68
551.17	11.66
551.517	11.64
551.865	11.58
552.212	11.55
552.56	11.49
552.907	11.49
553.254	11.43
553.602	11.39
553.949	11.34
554.296	11.33
554.643	11.3
554.99	11.23
555.337	11.17
555.684	11.15
556.031	11.06
556.378	11.01
556.725	10.93
557.072	10.9
557.419	10.86
557.765	10.84
558.112	10.82
558.459	10.79
558.805	10.76
559.152	10.7
559.498	10.66
559.845	10.65
560.191	10.62
560.538	10.57
560.884	10.53
561.23	10.47
561.576	10.41
561.923	10.33
562.269	10.28
562.615	10.26
562.961	10.22
563.307	10.18
563.653	10.13
563.999	10.1
564.344	10.08
564.69	10.01
565.036	9.98
565.382	9.96
565.727	9.94
566.073	9.9
566.419	9.83
566.764	9.81
567.11	9.78
567.455	9.76
567.8	9.72
568.146	9.68
568.491	9.67
568.836	9.62
569.181	9.56
569.527	9.52
569.872	9.46
570.217	9.43
570.562	9.4
570.907	9.37
571.252	9.34
571.597	9.3
571.941	9.28
572.286	9.27
572.631	9.27
572.976	9.27
573.32	9.26
573.665	9.25
574.009	9.24
574.354	9.22
574.698	9.22
575.043	9.21
575.387	9.2
575.731	9.15
576.076	9.12
576.42	9.11
576.764	9.05
577.108	9.03
577.452	9.02
577.796	8.98
578.14	8.94
578.484	8.91
578.828	8.88
579.172	8.86
579.516	8.82
579.86	8.79
580.203	8.77
580.547	8.76
580.891	8.75
581.234	8.74
581.578	8.72
581.921	8.71
582.264	8.67
582.608	8.66
582.951	8.66
583.294	8.66
583.638	8.65
583.981	8.63
584.324	8.62
584.667	8.61
585.01	8.61
585.353	8.6
585.696	8.6
586.039	8.6
586.382	8.58
586.725	8.57
587.067	8.55
587.41	8.54
587.753	8.53
588.095	8.52
588.438	8.52
588.781	8.49
589.123	8.47
589.465	8.44
589.808	8.44
590.15	8.42
590.492	8.4
590.835	8.37
591.177	8.33
591.519	8.32
591.861	8.3
592.203	8.29
592.545	8.28
592.887	8.26
593.229	8.26
593.571	8.25
593.913	8.24
594.254	8.23
594.596	8.22
594.938	8.2
595.279	8.2
595.621	8.19
595.963	8.17
596.304	8.15
596.645	8.15
596.987	8.15
597.328	8.14
597.669	8.12
598.011	8.11
598.352	8.1
598.693	8.09
599.034	8.08
599.375	8.09
599.716	8.1
600.057	8.1
600.398	8.1
600.739	8.1
601.08	8.1
601.42	8.1
601.761	8.09
602.102	8.09
602.442	8.09
602.783	8.05
603.123	8.03
603.464	8
603.804	7.99
604.145	7.95
604.485	7.94
604.825	7.93
605.166	7.9
605.506	7.9
605.846	7.9
606.186	7.88
606.526	7.88
606.866	7.85
607.206	7.85
607.546	7.82
607.886	7.78
608.225	7.73
608.565	7.71
608.905	7.67
609.245	7.63
609.584	7.62
609.924	7.59
610.263	7.59
610.603	7.6
610.942	7.6
611.281	7.6
611.621	7.6
611.96	7.56
612.299	7.57
612.638	7.58
612.978	7.58
613.317	7.58
613.656	7.57
613.995	7.56
614.334	7.52
614.672	7.5
615.011	7.48
615.35	7.46
615.689	7.45
616.027	7.42
616.366	7.44
616.705	7.45
617.043	7.4
617.382	7.39
617.72	7.34
618.059	7.28
618.397	7.28
618.735	7.29
619.073	7.28
619.412	7.27
619.75	7.25
620.088	7.2
620.426	7.19
620.764	7.18
621.102	7.18
621.44	7.18
621.778	7.17
622.115	7.16
622.453	7.17
622.791	7.18
623.129	7.17
623.466	7.16
623.804	7.15
624.141	7.13
624.479	7.13
624.816	7.14
625.153	7.14
625.491	7.14
625.828	7.14
626.165	7.09
626.502	7.08
626.84	7.06
627.177	7.05
627.514	6.97
627.851	6.88
628.188	6.83
628.524	6.74
628.861	6.73
629.198	6.66
629.535	6.61
629.871	6.57
630.208	6.56
630.545	6.55
630.881	6.54
631.218	6.58
631.554	6.62
631.89	6.6
632.227	6.64
632.563	6.64
632.899	6.66
633.235	6.62
633.572	6.65
633.908	6.61
634.244	6.6
634.58	6.59
634.916	6.58
635.251	6.6
635.587	6.61
635.923	6.62
636.259	6.57
636.595	6.57
636.93	6.61
637.266	6.6
637.601	6.59
637.937	6.52
638.272	6.45
638.608	6.47
638.943	6.41
639.278	6.41
639.613	6.34
639.949	6.33
640.284	6.28
640.619	6.29
640.954	6.25
641.289	6.25
641.624	6.29
641.959	6.39
642.294	6.33
642.628	6.31
642.963	6.31
643.298	6.27
643.632	6.36
643.967	6.36
644.302	6.3
644.636	6.36
644.971	6.3
645.305	6.29
645.639	6.2
645.974	6.16
646.308	6.14
646.642	6.1
646.976	6.14
647.31	5.99
647.644	5.98
647.978	5.96
648.312	5.95
648.646	6.02
648.98	6.01
649.314	5.99
649.647	5.96
649.981	5.95
650.315	5.93
650.648	5.87
650.982	5.95
651.315	5.94
651.649	5.95
651.982	5.92
652.316	5.93
652.649	5.95
652.982	5.98
653.315	6
653.648	6.03
653.982	6.07
654.315	6.07
654.648	5.97
654.981	5.98
655.313	6
655.646	6.01
655.979	5.88
656.312	5.85
656.644	5.81
656.977	5.72
657.31	5.61
657.642	5.55
657.975	5.56
658.307	5.59
658.64	5.53
658.972	5.43
659.304	5.35
659.636	5.39
659.969	5.33
660.301	5.29
660.633	5.32
660.965	5.37
661.297	5.43
661.629	5.44
661.961	5.37
662.292	5.4
662.624	5.41
662.956	5.44
663.288	5.48
663.619	5.58
663.951	5.56
664.282	5.55
664.614	5.53
664.945	5.45
665.276	5.39
665.608	5.48
665.939	5.45
666.27	5.48
666.601	5.45
666.933	5.43
667.264	5.33
667.595	5.37
667.926	5.31
668.256	5.3
668.587	5.26
668.918	5.28
669.249	5.22
669.58	5.21
669.91	5.17
670.241	5.07
670.571	5.02
670.902	4.9
671.232	4.95
671.563	5.02
671.893	5.03
672.223	5.07
672.554	5.02
672.884	5.04
673.214	5.02
673.544	5.02
673.874	5.1
674.204	5.15
674.534	5.27
674.864	5.24
675.194	5.2
675.524	5.17
675.853	5.1
676.183	5.11
676.513	5.16
676.842	5.09
677.172	5.08
677.501	5.13
677.831	5.15
678.16	5.21
678.489	5.24
678.819	5.3
679.148	5.34
679.477	5.43
679.806	5.43
680.135	5.36
680.464	5.42
680.793	5.41
681.122	5.32
681.451	5.24
681.78	5.06
682.108	4.95
682.437	4.78
682.766	4.67
683.094	4.55
683.423	4.53
683.751	4.52
684.08	4.5
684.408	4.42
684.737	4.43
685.065	4.3
685.393	4.4
685.721	4.4
686.049	4.5
686.377	4.46
686.705	4.48
687.033	4.47
687.361	4.41
687.689	4.41
688.017	4.46
688.345	4.48
688.673	4.6
689.0	4.6
689.328	4.74
689.655	4.82
689.983	4.97
690.31	5
690.638	5.04
690.965	5.1
691.292	5.11
691.62	5.18
691.947	5.16
692.274	5.12
692.601	5.13
692.928	5.05
693.255	4.95
693.582	4.89
693.909	4.88
694.236	4.82
694.562	4.83
694.889	4.83
695.216	4.76
695.542	4.83
695.869	4.75
696.196	4.81
696.522	4.78
696.848	4.72
697.175	4.68
697.501	4.7
697.827	4.69
698.154	4.62
698.48	4.62
698.806	4.67
699.132	4.68
699.458	4.81
699.784	4.72
700.11	4.67
700.435	4.78
700.761	4.78
701.087	4.72
701.413	4.73
701.738	4.84
702.064	4.71
702.389	4.62
702.715	4.58
703.04	4.48
703.366	4.55
703.691	4.68
704.016	4.62
704.341	4.79
704.666	4.88
704.992	4.96
705.317	4.96
705.642	5.15
705.967	5.17
706.291	5.1
706.616	5.13
706.941	5.21
707.266	5.11
707.59	5
707.915	4.88
708.24	4.8
708.564	4.59
708.889	4.42
709.213	4.36
709.537	4.23
709.862	4.13
710.186	4.16
710.51	3.99
710.834	3.89
711.158	3.96
711.482	3.86
711.806	3.89
712.13	3.94
712.454	3.93
712.778	3.94
713.102	4
713.426	4.04
713.749	4.06
714.073	4.18
714.396	4.19
714.72	4.22
715.043	4.27
715.367	4.35
715.69	4.42
716.013	4.47
716.337	4.43
716.66	4.57
716.983	4.78
717.306	4.77
717.629	4.71
717.952	4.69
718.275	4.67
718.598	4.51
718.921	4.43
719.243	4.5
719.566	4.58
719.889	4.71
720.211	4.64
720.534	4.53
720.856	4.56
721.179	4.46
721.501	4.68
721.823	4.78
722.146	4.94
722.468	4.82
722.79	4.72
723.112	4.64
723.434	4.58
723.756	4.65
724.078	4.65
724.4	4.45
724.722	4.62
725.044	4.65
725.366	4.38
725.687	4.32
726.009	4.52
726.33	4.55
726.652	4.56
726.973	4.42
727.295	4.44
727.616	4.49
727.938	4.63
728.259	4.59
728.58	4.51
728.901	4.86
729.222	5.19
729.543	5.35
729.864	5.28
730.185	5.34
730.506	5.37
730.827	5.41
731.148	5.49
731.468	5.43
731.789	5.25
732.11	5.23
732.43	5.1
732.751	5.08
733.071	4.82
733.392	4.89
733.712	4.96
734.032	5.03
734.352	4.89
734.673	4.74
734.993	4.78
735.313	4.81
735.633	5.17
735.953	5.03
736.273	4.89
736.593	4.81
736.912	4.75
737.232	4.64
737.552	4.52
737.871	4.39
738.191	4.32
738.51	4.41
738.83	4.45
739.149	4.04
739.469	4.25
739.788	4.33
740.107	4.54
740.426	4.71
740.746	4.83
741.065	4.94
741.384	4.99
741.703	4.95
742.022	4.8
742.341	4.92
742.659	4.96
742.978	4.83
743.297	4.57
743.615	4.32
743.934	3.93
744.253	3.64
744.571	3.81
744.89	3.85
745.208	3.76
745.526	3.85
745.845	3.59
746.163	3.52
746.481	3.8
746.799	3.69
747.117	3.63
747.435	3.97
747.753	4.06
748.071	4.01
748.389	3.96
748.706	4.24
749.024	4.41
749.342	4.49
749.659	4.8
749.977	4.24
750.295	4.66
750.612	4.75
750.929	4.35
751.247	4.47
751.564	4.42
751.881	4.24
752.198	4.39
752.516	4.23
752.833	4.42
753.15	3.97
753.467	4.34
753.783	4.13
754.1	4.19
754.417	4.65
754.734	4.49
755.05	4.53
755.367	4.83
755.684	4.97
756.0	4.98
756.317	4.93
756.633	5.32
756.949	5.3
757.266	5.4
757.582	5.5
757.898	5.62
758.214	6.02
758.53	5.9
758.846	5.77
759.162	5.37
759.478	5.23
759.794	5.15
760.11	5.11
760.426	4.85
760.741	4.68
761.057	4.48
761.372	4.21
761.688	3.84
762.003	3.94
762.319	3.99
762.634	3.94
762.949	3.78
763.265	3.49
763.58	3.34
763.895	3.32
764.21	3.3
764.525	3.42
764.84	3.43
765.155	3.51
765.47	3.24
765.785	3.27
766.099	3.36
766.414	3.37
766.729	3.7
767.043	3.74
767.358	3.66
767.672	3.77
767.987	3.61
768.301	3.85
768.615	3.78
768.929	3.95
769.244	3.9
769.558	4.16
769.872	4.61
770.186	4.59
770.5	4.48
770.814	4.72
771.127	4.73
771.441	4.56
771.755	4.07
772.069	4.03
772.382	4.22
772.696	4.55
773.009	4.15
773.323	3.75
773.636	3.56
773.95	3.49
774.263	3.39
774.576	3.25
774.889	3.81
775.202	4.33
775.515	4.44
775.828	4.45
776.141	4.3
776.454	4.13
776.767	3.86
777.08	3.72
777.393	4.17
777.705	4.15
778.018	4.18
778.33	3.83
778.643	3.15
778.955	3.04
779.268	2.79
779.58	2.56
779.892	2.69
780.205	3.12
780.517	4.06
780.829	4.16
781.141	4.81
781.453	5.1
781.765	5.68
782.077	6.3
782.388	6.36
782.7	6.51
783.012	7.04
783.324	7.54
783.635	8.03
783.947	7.35
784.258	7.01
784.57	6.85
784.881	6.48
785.192	6.52
785.504	6.39
785.815	6.69
786.126	6.55
786.437	6.23
786.748	5.65
787.059	5.06
787.37	4.85
787.681	4.41
787.992	4.3
788.302	4.88
788.613	4.86
788.924	4.74
789.234	4.63
789.545	4.54
789.855	4.42
790.166	4.68
790.476	4.52
790.786	4.52
791.096	4.37
791.407	4.24
791.717	4.18
792.027	3.4
792.337	3.35
792.647	3.33
792.957	3.17
793.266	3.42
793.576	3.63
793.886	4.2
794.196	5.07
794.505	9.82
794.815	10.16
795.124	9.71
795.434	10.31
795.743	10.03
796.052	9.59
796.362	9.96
796.671	10.05
796.98	9.96
797.289	9.64
797.598	8.68
797.907	4.25
798.216	3.92
798.525	4.17
798.834	3.82
799.142	4.89
799.451	5.28
799.76	5.35
800.068	5.37
800.377	5.4
800.685	5.66
800.994	6.31
801.302	5.84
801.61	5.97
801.918	5.54
802.227	5.37
802.535	4.32
802.843	3.84
803.151	3.28
803.459	2.79
803.767	1.97
804.074	1.31
804.382	1.4
804.69	3.37
804.998	3.46
805.305	4.06
805.613	5
805.92	5.44
806.228	5.89
806.535	5.77
806.842	6.08
807.15	6.65
807.457	7.32
807.764	7.33
808.071	5.44
808.378	5.37
808.685	4.97
808.992	3.81
809.299	3.21
809.605	3.97
809.912	5.18
810.219	4.81
810.525	5.07
810.832	5.16
811.138	5.27
811.445	6.61
811.751	6.25
812.058	6.17
812.364	7.21
812.67	7.97
812.976	7.54
813.282	7.4
813.588	7.09
813.894	7.14
814.2	6.74
814.506	5.94
814.812	5.62
815.118	5.94
815.423	6.04
815.729	4.69
816.035	3.38
816.34	2.54
816.646	2.7
816.951	3.04
817.256	2
817.562	2.07
817.867	2.84
818.172	2.26
818.477	2.06
818.782	2.69
819.087	3.28
819.392	4.05
819.697	4.15
820.002	3.71
820.306	3.88
820.611	4.56
820.916	5.04
821.22	5.05
821.525	5.4
821.829	5.32
822.134	4.86
822.438	4.98
822.742	4.86
823.047	5.13
823.351	4.98
823.655	4.98
823.959	4.95
824.263	4.69
824.567	4.72
824.871	4.62
825.174	4.6
825.478	5.62
825.782	5.7
826.086	5.87
826.389	6.05
826.693	6.05
826.996	5.74
827.3	5.76
827.603	5.81
827.906	5.63
828.209	5.61
828.513	5.5
828.816	4.45
829.119	4.35
829.422	4.12
829.725	3.81
830.028	4.14
830.33	4.75
830.633	5.11
830.936	5.42
831.238	5.91
831.541	6.28
831.844	6.58
832.146	6.26
832.448	6.25
832.751	6.46
833.053	6.93
833.355	6.89
833.657	6.77
833.96	6.06
834.262	5.91
834.564	5.7
834.865	5.48
835.167	6.61
835.469	6.7
835.771	6.71
836.073	6.27
836.374	6.02
836.676	5.39
836.977	5.32
837.279	5.71
837.58	5.97
837.882	6.18
838.183	5.9
838.484	5.55
838.785	6.15
839.086	5.77
839.387	6.83
839.688	7.04
839.989	8.17
840.29	8.05
840.591	8.41
840.892	8.32
841.192	9.36
841.493	9.77
841.794	9.85
842.094	9.74
842.394	10.5
842.695	25.48
842.995	26.99
843.295	27.08
843.596	27.49
843.896	27.73
844.196	28.85
844.496	26.68
844.796	25.69
845.096	25.9
845.396	25.72
845.695	27.78
845.995	7.82
846.295	6.74
846.594	9.23
846.894	10.88
847.194	11.32
847.493	11.6
847.792	11.04
848.092	13.92
848.391	13.25
848.69	15.08
848.989	13.9
849.288	12.84
849.587	12.68
849.886	10.3
850.185	9.9
850.484	12.34
850.783	13.35
851.081	15.11
851.38	14.05
851.679	13.99
851.977	12.81
852.276	12.38
852.574	10.72
852.872	10.79
853.171	11.49
853.469	9.14
853.767	5.36
854.065	2.63
854.363	3.53
854.661	3.69
854.959	5.29
855.257	6.57
855.555	9.53
855.853	11.48
856.15	12.6
856.448	13.36
856.746	16
857.043	15.64
857.341	20.48
857.638	24.11
857.935	23.16
858.233	20.5
858.53	19.32
858.827	16.92
859.124	18.16
859.421	18.1
859.718	18.19
860.015	18.38
860.312	18.48
860.609	13.46
860.905	10.62
861.202	12.3
861.499	12.75
861.795	15.29
862.092	16.75
862.388	15.91
862.684	14.95
862.981	10.83
863.277	9.98
863.573	10.82
863.869	12.03
864.165	7.96
864.461	4.08
864.757	6.66
865.053	5.37
865.349	2.24
865.645	0.73
865.94	0.73
866.236	1.72
866.532	2.33
866.827	4.53
867.123	6.58
867.418	10.85
867.713	13.04
868.009	10.02
868.304	9.69
868.599	13.59
868.894	16.1
869.189	19.09
869.484	19.13
869.779	18.13
870.074	14.17
870.369	11.88
870.663	11.89
870.958	11.2
871.252	13.11
871.547	12.86
871.842	9.66
872.136	7.94
872.43	5.38
872.725	6.8
873.019	3.99
873.313	6.33
873.607	6.42
873.901	4.86
874.195	7.04
874.489	8.33
874.783	8.35
875.077	7.24
875.37	7.35
875.664	7.8
875.958	4.19
876.251	6.11
876.545	3.75
876.838	2.48
877.132	4.42
877.425	2.82
877.718	1.65
878.011	3.81
878.305	8.26
878.598	7.11
878.891	9
879.184	13.25
879.476	19.62
879.769	22.99
880.062	22.65
880.355	18.31
880.647	18.3
880.94	15.65
881.232	13.13
881.525	10.79
881.817	7.4
882.11	8.14
882.402	5.22
882.694	4.37
882.986	4.31
883.278	5.08
883.57	7.05
883.862	7.39
884.154	7.79
884.446	7.96
884.738	7.6
885.03	8.84
885.321	8.59
885.613	9.13
885.904	8.26
886.196	8.62
886.487	9.04
886.779	9.35
887.07	10.04
887.361	10.28
887.652	10.61
887.943	11.25
888.234	11.76
888.525	12.01
888.816	12.95
889.107	14.61
889.398	15.02
889.689	15.5
889.979	16.15
890.27	14.45
890.56	15.54
890.851	15.46
891.141	16.78
891.432	16.73
891.722	17.6
