Data from groin2_Reflection__0__14-53-38-962.txt Node

Date: Thu Aug 04 14:53:38 AEST 2022
User: kathy
Spectrometer: JAZA2503
Trigger mode: 0
Integration Time (sec): 2.439700E-1
Scans to average: 10
Electric dark correction enabled: true
Nonlinearity correction enabled: true
Boxcar width: 5
XAxis mode: Wavelengths
Number of Pixels in Spectrum: 2048
>>>>>Begin Spectral Data<<<<<
189.467	130.14
189.852	25.68
190.237	33.14
190.622	-15.85
191.007	17.03
191.392	58.72
191.777	65.27
192.162	65.42
192.546	113.45
192.931	248.65
193.316	114.33
193.701	127.54
194.086	12.95
194.47	-22.36
194.855	5786.67
195.24	1085.15
195.624	-215.56
196.009	-124.73
196.393	-247.08
196.778	-526.69
197.163	-111.3
197.547	-63.05
197.931	-62.91
198.316	-42.54
198.7	-8.1
199.085	21.2
199.469	28.65
199.853	24.8
200.237	26.28
200.622	28.82
201.006	34.55
201.39	30.73
201.774	28.11
202.158	27.88
202.542	29.24
202.926	16.96
203.31	5.8
203.694	-0.32
204.078	-0.04
204.462	4.97
204.846	4.49
205.23	-4.23
205.614	-8.93
205.998	-7.57
206.381	-7.59
206.765	-7.73
207.149	-3.56
207.532	2.92
207.916	4.45
208.3	4.22
208.683	2.54
209.067	5.12
209.45	7.65
209.834	12.93
210.217	13.99
210.601	13.98
210.984	17.21
211.367	15.86
211.751	15.3
212.134	17.33
212.517	21.57
212.901	19.63
213.284	17.6
213.667	16.56
214.05	15.65
214.433	15.42
214.816	16.36
215.199	15.08
215.582	18.54
215.965	15.17
216.348	16.85
216.731	11.15
217.114	11.44
217.497	9.69
217.88	6.91
218.262	3.97
218.645	-1
219.028	0.48
219.411	-4.69
219.793	-6.73
220.176	-5.77
220.559	-4.64
220.941	-4.09
221.324	-1.3
221.706	2.26
222.089	4.96
222.471	6.67
222.853	7.88
223.236	7.72
223.618	10.08
224	9.9
224.383	8.9
224.765	4.72
225.147	5.03
225.529	4.4
225.912	3.56
226.294	2.23
226.676	1.21
227.058	0.75
227.44	0.01
227.822	0.89
228.204	1.45
228.586	1.55
228.968	2.04
229.349	2.45
229.731	2.29
230.113	2.12
230.495	2.43
230.877	2.63
231.258	2.92
231.64	3.09
232.022	2.12
232.403	2.06
232.785	2.15
233.166	2.02
233.548	1.66
233.929	1.09
234.311	1.15
234.692	1.13
235.073	0.94
235.455	0.71
235.836	1.29
236.217	1.35
236.599	1.18
236.98	1.32
237.361	1.27
237.742	1.1
238.123	1.73
238.504	1.56
238.885	1.6
239.266	1.63
239.647	1.38
240.028	0.81
240.409	1.05
240.79	1.2
241.171	0.86
241.552	0.92
241.933	1.06
242.313	1.3
242.694	1.34
243.075	1.42
243.456	1.32
243.836	1.29
244.217	1.56
244.597	1.62
244.978	1.57
245.358	1.78
245.739	1.74
246.119	1.72
246.5	1.47
246.88	1.48
247.26	1.33
247.641	1.35
248.021	1.35
248.401	1.23
248.781	1.27
249.162	1.26
249.542	1.12
249.922	1.16
250.302	1.22
250.682	1.27
251.062	1.17
251.442	1.17
251.822	1.22
252.202	1.35
252.582	1.36
252.961	1.34
253.341	1.58
253.721	1.77
254.101	1.8
254.48	1.71
254.86	1.72
255.24	1.76
255.619	1.86
255.999	1.95
256.378	1.75
256.758	1.91
257.137	1.84
257.517	1.47
257.896	1.33
258.276	1.29
258.655	1.02
259.034	0.85
259.414	0.87
259.793	0.83
260.172	0.75
260.551	0.77
260.93	0.62
261.309	0.59
261.688	0.6
262.068	0.61
262.447	0.54
262.825	0.56
263.204	0.54
263.583	0.52
263.962	0.42
264.341	0.53
264.72	0.48
265.099	0.62
265.477	0.62
265.856	0.58
266.235	0.56
266.613	0.59
266.992	0.64
267.371	0.75
267.749	0.72
268.128	0.76
268.506	0.72
268.884	0.87
269.263	0.76
269.641	0.72
270.02	0.84
270.398	0.84
270.776	0.86
271.154	0.87
271.533	0.9
271.911	0.94
272.289	1.03
272.667	0.96
273.045	0.93
273.423	0.97
273.801	1.05
274.179	0.94
274.557	0.99
274.935	0.97
275.313	1
275.69	0.98
276.068	0.97
276.446	0.9
276.824	0.89
277.201	0.8
277.579	0.83
277.957	0.73
278.334	0.72
278.712	0.67
279.089	0.66
279.467	0.61
279.844	0.59
280.222	0.54
280.599	0.5
280.976	0.58
281.354	0.6
281.731	0.52
282.108	0.55
282.485	0.59
282.863	0.58
283.24	0.6
283.617	0.65
283.994	0.63
284.371	0.62
284.748	0.69
285.125	0.67
285.502	0.72
285.879	0.78
286.256	0.82
286.633	0.91
287.009	1.01
287.386	1.01
287.763	1.05
288.139	1.08
288.516	1.15
288.893	1.18
289.269	1.22
289.646	1.26
290.022	1.27
290.399	1.3
290.775	1.27
291.152	1.27
291.528	1.32
291.904	1.29
292.281	1.35
292.657	1.41
293.033	1.43
293.41	1.48
293.786	1.49
294.162	1.55
294.538	1.59
294.914	1.68
295.29	1.75
295.666	1.83
296.042	1.94
296.418	2.04
296.794	2.07
297.17	2.14
297.546	2.2
297.921	2.29
298.297	2.38
298.673	2.47
299.048	2.53
299.424	2.61
299.8	2.69
300.175	2.78
300.551	2.84
300.926	2.97
301.302	3.07
301.677	3.14
302.053	3.22
302.428	3.31
302.803	3.4
303.179	3.5
303.554	3.57
303.929	3.64
304.304	3.71
304.68	3.78
305.055	3.85
305.43	3.91
305.805	4.02
306.18	4.09
306.555	4.13
306.93	4.21
307.305	4.25
307.679	4.31
308.054	4.35
308.429	4.36
308.804	4.41
309.179	4.44
309.553	4.45
309.928	4.45
310.303	4.48
310.677	4.54
311.052	4.54
311.426	4.58
311.801	4.62
312.175	4.67
312.55	4.73
312.924	4.75
313.298	4.77
313.673	4.81
314.047	4.85
314.421	4.86
314.795	4.86
315.17	4.9
315.544	4.91
315.918	4.92
316.292	4.97
316.666	5.02
317.04	5.07
317.414	5.13
317.788	5.23
318.162	5.35
318.535	5.47
318.909	5.6
319.283	5.76
319.657	5.9
320.03	6.08
320.404	6.24
320.778	6.68
321.151	7.17
321.525	7.75
321.898	8.43
322.272	9.13
322.645	9.97
323.019	10.83
323.392	11.83
323.765	12.89
324.139	14.09
324.512	15.37
324.885	16.69
325.258	18.04
325.632	19.23
326.005	20.33
326.378	21.29
326.751	22.11
327.124	22.66
327.497	23.12
327.87	23.52
328.243	23.82
328.616	24.06
328.988	24.24
329.361	24.42
329.734	24.52
330.107	24.49
330.479	24.42
330.852	24.3
331.225	24.22
331.597	24.13
331.97	23.92
332.342	23.83
332.715	23.67
333.087	23.56
333.46	23.43
333.832	23.31
334.204	23.26
334.577	23.25
334.949	23.19
335.321	23.13
335.693	23.05
336.065	22.9
336.438	22.74
336.81	22.59
337.182	22.44
337.554	22.25
337.926	22.2
338.298	22.13
338.669	22.05
339.041	21.95
339.413	21.9
339.785	21.89
340.157	21.79
340.528	21.76
340.9	21.75
341.272	21.76
341.643	21.76
342.015	21.84
342.386	21.91
342.758	22
343.129	22.09
343.501	22.18
343.872	22.22
344.243	22.26
344.615	22.28
344.986	22.25
345.357	22.29
345.728	22.32
346.099	22.38
346.471	22.39
346.842	22.44
347.213	22.51
347.584	22.56
347.955	22.59
348.326	22.54
348.697	22.49
349.067	22.53
349.438	22.57
349.809	22.62
350.18	22.79
350.55	22.83
350.921	22.87
351.292	23
351.662	23.08
352.033	23.13
352.403	23.14
352.774	23.21
353.144	23.25
353.515	23.3
353.885	23.35
354.255	23.34
354.626	23.39
354.996	23.43
355.366	23.44
355.736	23.44
356.107	23.48
356.477	23.53
356.847	23.55
357.217	23.58
357.587	23.62
357.957	23.69
358.327	23.7
358.697	23.76
359.066	23.8
359.436	23.83
359.806	23.88
360.176	23.91
360.546	23.93
360.915	23.99
361.285	24.01
361.654	24.03
362.024	24.01
362.393	24.02
362.763	24.02
363.132	24.04
363.502	24.08
363.871	24.1
364.24	24.12
364.61	24.16
364.979	24.16
365.348	24.19
365.717	24.22
366.087	24.27
366.456	24.31
366.825	24.33
367.194	24.33
367.563	24.33
367.932	24.35
368.301	24.36
368.669	24.37
369.038	24.38
369.407	24.38
369.776	24.36
370.145	24.31
370.513	24.34
370.882	24.36
371.25	24.42
371.619	24.41
371.988	24.41
372.356	24.43
372.724	24.4
373.093	24.4
373.461	24.4
373.83	24.43
374.198	24.46
374.566	24.44
374.934	24.44
375.303	24.43
375.671	24.44
376.039	24.44
376.407	24.45
376.775	24.47
377.143	24.51
377.511	24.53
377.879	24.54
378.247	24.55
378.615	24.61
378.982	24.6
379.35	24.61
379.718	24.62
380.086	24.64
380.453	24.66
380.821	24.65
381.188	24.62
381.556	24.65
381.923	24.66
382.291	24.68
382.658	24.64
383.026	24.66
383.393	24.67
383.76	24.67
384.128	24.72
384.495	24.72
384.862	24.77
385.229	24.8
385.596	24.77
385.963	24.75
386.33	24.78
386.697	24.81
387.064	24.78
387.431	24.78
387.798	24.76
388.165	24.74
388.532	24.73
388.899	24.73
389.265	24.73
389.632	24.75
389.999	24.76
390.365	24.74
390.732	24.74
391.098	24.77
391.465	24.78
391.831	24.8
392.198	24.8
392.564	24.81
392.93	24.81
393.297	24.82
393.663	24.84
394.029	24.87
394.395	24.9
394.762	24.93
395.128	24.94
395.494	24.95
395.86	25
396.226	25.03
396.592	25.04
396.958	25.07
397.323	25.1
397.689	25.13
398.055	25.17
398.421	25.19
398.787	25.22
399.152	25.25
399.518	25.3
399.883	25.3
400.249	25.33
400.615	25.38
400.98	25.4
401.345	25.41
401.711	25.41
402.076	25.38
402.442	25.41
402.807	25.44
403.172	25.47
403.537	25.47
403.902	25.48
404.268	25.49
404.633	25.51
404.998	25.54
405.363	25.59
405.728	25.62
406.093	25.7
406.457	25.71
406.822	25.72
407.187	25.71
407.552	25.79
407.917	25.83
408.281	25.86
408.646	25.87
409.011	25.91
409.375	25.97
409.74	25.99
410.104	26.01
410.469	26.06
410.833	26.12
411.197	26.19
411.562	26.22
411.926	26.27
412.29	26.32
412.655	26.37
413.019	26.4
413.383	26.45
413.747	26.48
414.111	26.5
414.475	26.54
414.839	26.58
415.203	26.63
415.567	26.65
415.931	26.68
416.295	26.71
416.658	26.75
417.022	26.76
417.386	26.77
417.749	26.82
418.113	26.83
418.477	26.85
418.84	26.87
419.204	26.89
419.567	26.92
419.931	26.95
420.294	26.99
420.657	27.02
421.021	27.05
421.384	27.06
421.747	27.1
422.11	27.13
422.473	27.13
422.836	27.15
423.199	27.13
423.562	27.16
423.925	27.17
424.288	27.15
424.651	27.17
425.014	27.22
425.377	27.26
425.74	27.26
426.102	27.31
426.465	27.37
426.828	27.43
427.19	27.47
427.553	27.5
427.916	27.55
428.278	27.62
428.641	27.62
429.003	27.61
429.365	27.58
429.728	27.6
430.09	27.62
430.452	27.6
430.814	27.59
431.177	27.61
431.539	27.6
431.901	27.59
432.263	27.59
432.625	27.64
432.987	27.68
433.349	27.77
433.711	27.8
434.072	27.83
434.434	27.86
434.796	27.88
435.158	27.93
435.519	28
435.881	28.04
436.243	28.05
436.604	28.07
436.966	28.1
437.327	28.12
437.689	28.14
438.05	28.13
438.411	28.18
438.773	28.24
439.134	28.22
439.495	28.22
439.856	28.25
440.218	28.29
440.579	28.31
440.94	28.33
441.301	28.37
441.662	28.4
442.023	28.46
442.384	28.48
442.745	28.48
443.105	28.53
443.466	28.57
443.827	28.59
444.188	28.6
444.548	28.63
444.909	28.67
445.269	28.66
445.63	28.68
445.99	28.69
446.351	28.71
446.711	28.72
447.072	28.77
447.432	28.76
447.792	28.74
448.153	28.76
448.513	28.78
448.873	28.77
449.233	28.75
449.593	28.77
449.953	28.76
450.313	28.78
450.673	28.77
451.033	28.77
451.393	28.81
451.753	28.83
452.113	28.9
452.472	28.85
452.832	28.85
453.192	28.88
453.551	28.88
453.911	28.89
454.271	28.88
454.63	28.94
454.989	28.96
455.349	28.97
455.708	28.99
456.068	28.97
456.427	29.01
456.786	29.04
457.145	29.08
457.505	29.12
457.864	29.17
458.223	29.22
458.582	29.25
458.941	29.27
459.3	29.29
459.659	29.3
460.018	29.31
460.376	29.35
460.735	29.37
461.094	29.36
461.453	29.37
461.811	29.36
462.17	29.38
462.529	29.38
462.887	29.38
463.246	29.4
463.604	29.4
463.963	29.41
464.321	29.41
464.679	29.4
465.038	29.39
465.396	29.4
465.754	29.42
466.112	29.42
466.47	29.43
466.828	29.44
467.186	29.43
467.544	29.46
467.902	29.48
468.26	29.45
468.618	29.47
468.976	29.5
469.334	29.5
469.692	29.48
470.049	29.48
470.407	29.46
470.765	29.49
471.122	29.51
471.48	29.54
471.837	29.57
472.195	29.63
472.552	29.64
472.909	29.66
473.267	29.66
473.624	29.64
473.981	29.64
474.338	29.65
474.696	29.63
475.053	29.64
475.41	29.61
475.767	29.6
476.124	29.58
476.481	29.57
476.838	29.55
477.194	29.54
477.551	29.58
477.908	29.58
478.265	29.57
478.621	29.59
478.978	29.61
479.335	29.62
479.691	29.67
480.048	29.66
480.404	29.67
480.761	29.67
481.117	29.68
481.473	29.64
481.83	29.66
482.186	29.66
482.542	29.67
482.898	29.63
483.255	29.61
483.611	29.57
483.967	29.58
484.323	29.58
484.679	29.57
485.035	29.55
485.39	29.56
485.746	29.54
486.102	29.56
486.458	29.54
486.814	29.54
487.169	29.57
487.525	29.57
487.88	29.53
488.236	29.51
488.591	29.51
488.947	29.49
489.302	29.5
489.658	29.49
490.013	29.47
490.368	29.43
490.723	29.41
491.079	29.35
491.434	29.3
491.789	29.3
492.144	29.29
492.499	29.26
492.854	29.24
493.209	29.17
493.564	29.14
493.919	29.12
494.273	29.09
494.628	29.05
494.983	29.02
495.338	29.01
495.692	28.98
496.047	28.95
496.401	28.93
496.756	28.89
497.11	28.87
497.465	28.84
497.819	28.82
498.173	28.81
498.528	28.83
498.882	28.83
499.236	28.84
499.59	28.86
499.944	28.86
500.298	28.87
500.652	28.89
501.006	28.9
501.36	28.9
501.714	28.88
502.068	28.86
502.422	28.83
502.776	28.84
503.129	28.84
503.483	28.8
503.837	28.78
504.19	28.74
504.544	28.7
504.897	28.66
505.251	28.6
505.604	28.57
505.958	28.54
506.311	28.5
506.664	28.42
507.017	28.34
507.371	28.3
507.724	28.23
508.077	28.18
508.43	28.16
508.783	28.11
509.136	28.08
509.489	28.04
509.842	28.01
510.195	27.97
510.547	27.92
510.9	27.88
511.253	27.8
511.606	27.74
511.958	27.68
512.311	27.62
512.663	27.53
513.016	27.48
513.368	27.41
513.721	27.37
514.073	27.33
514.425	27.32
514.778	27.29
515.13	27.26
515.482	27.24
515.834	27.22
516.186	27.18
516.538	27.19
516.89	27.17
517.242	27.18
517.594	27.14
517.946	27.12
518.298	27.09
518.65	27.04
519.001	27.03
519.353	27
519.705	26.94
520.056	26.89
520.408	26.84
520.759	26.8
521.111	26.75
521.462	26.7
521.814	26.62
522.165	26.56
522.516	26.51
522.868	26.46
523.219	26.37
523.57	26.35
523.921	26.26
524.272	26.21
524.623	26.14
524.974	26.06
525.325	26.01
525.676	25.96
526.027	25.91
526.378	25.86
526.728	25.78
527.079	25.76
527.43	25.71
527.78	25.71
528.131	25.68
528.481	25.63
528.832	25.59
529.182	25.55
529.533	25.48
529.883	25.43
530.233	25.43
530.584	25.42
530.934	25.34
531.284	25.26
531.634	25.13
531.984	25.09
532.334	25.04
532.684	24.99
533.034	24.93
533.384	24.92
533.734	24.83
534.084	24.7
534.434	24.62
534.783	24.56
535.133	24.53
535.483	24.52
535.832	24.43
536.182	24.35
536.531	24.28
536.881	24.23
537.23	24.17
537.58	24.15
537.929	24.13
538.278	24.5
538.628	24.41
538.977	24.36
539.326	24.32
539.675	24.28
540.024	24.23
540.373	24.2
540.722	24.17
541.071	24.11
541.42	24.07
541.769	23.99
542.117	23.52
542.466	23.51
542.815	23.44
543.163	23.37
543.512	23.29
543.861	23.22
544.209	23.16
544.558	23.09
544.906	23.05
545.254	22.95
545.603	22.91
545.951	22.87
546.299	22.8
546.647	22.78
546.996	22.75
547.344	22.72
547.692	22.7
548.04	22.64
548.388	22.6
548.736	22.55
549.083	22.52
549.431	22.47
549.779	22.42
550.127	22.36
550.475	22.25
550.822	22.15
551.17	22.12
551.517	22.05
551.865	21.96
552.212	21.91
552.56	21.83
552.907	21.76
553.254	21.69
553.602	21.61
553.949	21.54
554.296	21.48
554.643	21.45
554.99	21.34
555.337	21.26
555.684	21.25
556.031	21.15
556.378	21.09
556.725	21.03
557.072	20.96
557.419	20.91
557.765	20.84
558.112	20.79
558.459	20.74
558.805	20.7
559.152	20.66
559.498	20.59
559.845	20.54
560.191	20.48
560.538	20.42
560.884	20.4
561.23	20.37
561.576	20.32
561.923	20.26
562.269	20.18
562.615	20.13
562.961	20.06
563.307	20.01
563.653	19.99
563.999	19.94
564.344	19.9
564.69	19.82
565.036	19.76
565.382	19.71
565.727	19.65
566.073	19.62
566.419	19.56
566.764	19.51
567.11	19.44
567.455	19.36
567.8	19.34
568.146	19.33
568.491	19.27
568.836	19.2
569.181	19.12
569.527	19.1
569.872	19.03
570.217	18.95
570.562	18.93
570.907	18.9
571.252	18.87
571.597	18.8
571.941	18.72
572.286	18.69
572.631	18.65
572.976	18.64
573.32	18.64
573.665	18.64
574.009	18.63
574.354	18.61
574.698	18.59
575.043	18.58
575.387	18.55
575.731	18.54
576.076	18.48
576.42	18.45
576.764	18.41
577.108	18.39
577.452	18.34
577.796	18.31
578.14	18.3
578.484	18.21
578.828	18.2
579.172	18.18
579.516	18.15
579.86	18.11
580.203	18.08
580.547	18.05
580.891	18.01
581.234	17.98
581.578	17.95
581.921	17.89
582.264	17.85
582.608	17.83
582.951	17.82
583.294	17.79
583.638	17.79
583.981	17.78
584.324	17.74
584.667	17.71
585.01	17.69
585.353	17.67
585.696	17.66
586.039	17.64
586.382	17.6
586.725	17.57
587.067	17.54
587.41	17.52
587.753	17.5
588.095	17.49
588.438	17.47
588.781	17.43
589.123	17.39
589.465	17.35
589.808	17.29
590.15	17.29
590.492	17.27
590.835	17.25
591.177	17.2
591.519	17.17
591.861	17.15
592.203	17.15
592.545	17.13
592.887	17.12
593.229	17.12
593.571	17.1
593.913	17.07
594.254	17.05
594.596	17.01
594.938	17.01
595.279	16.98
595.621	16.97
595.963	16.96
596.304	16.94
596.645	16.93
596.987	16.9
597.328	16.9
597.669	16.9
598.011	16.88
598.352	16.84
598.693	16.79
599.034	16.78
599.375	16.76
599.716	16.71
600.057	16.68
600.398	16.62
600.739	16.6
601.08	16.57
601.42	16.54
601.761	16.54
602.102	16.54
602.442	16.53
602.783	16.49
603.123	16.44
603.464	16.41
603.804	16.39
604.145	16.36
604.485	16.36
604.825	16.3
605.166	16.26
605.506	16.25
605.846	16.24
606.186	16.22
606.526	16.21
606.866	16.2
607.206	16.19
607.546	16.17
607.886	16.16
608.225	16.11
608.565	16.09
608.905	16.09
609.245	16.02
609.584	15.97
609.924	15.94
610.263	15.93
610.603	15.91
610.942	15.9
611.281	15.89
611.621	15.87
611.96	15.82
612.299	15.81
612.638	15.81
612.978	15.79
613.317	15.78
613.656	15.75
613.995	15.74
614.334	15.71
614.672	15.7
615.011	15.67
615.35	15.65
615.689	15.62
616.027	15.62
616.366	15.61
616.705	15.59
617.043	15.57
617.382	15.56
617.72	15.55
618.059	15.5
618.397	15.5
618.735	15.5
619.073	15.49
619.412	15.46
619.75	15.46
620.088	15.4
620.426	15.38
620.764	15.31
621.102	15.3
621.44	15.28
621.778	15.23
622.115	15.21
622.453	15.21
622.791	15.24
623.129	15.21
623.466	15.17
623.804	15.15
624.141	15.09
624.479	15.08
624.816	15.06
625.153	15.04
625.491	14.99
625.828	14.94
626.165	14.9
626.502	14.88
626.84	14.87
627.177	14.86
627.514	14.84
627.851	14.75
628.188	14.7
628.524	14.57
628.861	14.53
629.198	14.5
629.535	14.43
629.871	14.43
630.208	14.42
630.545	14.35
630.881	14.29
631.218	14.22
631.554	14.21
631.89	14.17
632.227	14.21
632.563	14.2
632.899	14.17
633.235	14.09
633.572	14.04
633.908	13.98
634.244	13.99
634.58	13.94
634.916	13.95
635.251	13.95
635.587	13.94
635.923	13.89
636.259	13.83
636.595	13.8
636.93	13.86
637.266	13.84
637.601	13.85
637.937	13.73
638.272	13.71
638.608	13.69
638.943	13.65
639.278	13.63
639.613	13.59
639.949	13.6
640.284	13.52
640.619	13.43
640.954	13.37
641.289	13.29
641.624	13.31
641.959	13.29
642.294	13.21
642.628	13.17
642.963	13.09
643.298	13.03
643.632	13.01
643.967	12.96
644.302	12.96
644.636	12.94
644.971	12.92
645.305	12.93
645.639	12.84
645.974	12.77
646.308	12.71
646.642	12.68
646.976	12.64
647.31	12.57
647.644	12.64
647.978	12.58
648.312	12.55
648.646	12.55
648.98	12.48
649.314	12.51
649.647	12.51
649.981	12.45
650.315	12.4
650.648	12.36
650.982	12.37
651.315	12.27
651.649	12.26
651.982	12.21
652.316	12.2
652.649	12.17
652.982	12.16
653.315	12.14
653.648	12.21
653.982	12.19
654.315	12.21
654.648	12.09
654.981	12.13
655.313	12.13
655.646	12.05
655.979	11.99
656.312	11.94
656.644	11.86
656.977	11.79
657.31	11.69
657.642	11.58
657.975	11.58
658.307	11.57
658.64	11.5
658.972	11.42
659.304	11.41
659.636	11.36
659.969	11.33
660.301	11.29
660.633	11.33
660.965	11.36
661.297	11.46
661.629	11.42
661.961	11.42
662.292	11.41
662.624	11.42
662.956	11.42
663.288	11.46
663.619	11.46
663.951	11.47
664.282	11.38
664.614	11.31
664.945	11.17
665.276	11.09
665.608	11.08
665.939	11.1
666.27	11.02
666.601	11.04
666.933	10.92
667.264	10.88
667.595	10.84
667.926	10.79
668.256	10.77
668.587	10.86
668.918	10.83
669.249	10.72
669.58	10.69
669.91	10.73
670.241	10.63
670.571	10.64
670.902	10.59
671.232	10.66
671.563	10.72
671.893	10.65
672.223	10.59
672.554	10.67
672.884	10.65
673.214	10.64
673.544	10.62
673.874	10.65
674.204	10.66
674.534	10.69
674.864	10.59
675.194	10.54
675.524	10.64
675.853	10.6
676.183	10.5
676.513	10.59
676.842	10.49
677.172	10.47
677.501	10.48
677.831	10.39
678.16	10.35
678.489	10.36
678.819	10.39
679.148	10.32
679.477	10.38
679.806	10.38
680.135	10.32
680.464	10.32
680.793	10.3
681.122	10.24
681.451	10.29
681.78	10.18
682.108	10.17
682.437	10.07
682.766	10.02
683.094	9.87
683.423	9.81
683.751	9.75
684.08	9.72
684.408	9.65
684.737	9.65
685.065	9.6
685.393	9.79
685.721	9.74
686.049	9.8
686.377	9.85
686.705	9.9
687.033	9.97
687.361	9.93
687.689	9.9
688.017	9.92
688.345	9.91
688.673	9.9
689.0	9.83
689.328	9.82
689.655	9.78
689.983	9.76
690.31	9.69
690.638	9.69
690.965	9.65
691.292	9.59
691.62	9.59
691.947	9.53
692.274	9.47
692.601	9.42
692.928	9.42
693.255	9.38
693.582	9.37
693.909	9.46
694.236	9.38
694.562	9.5
694.889	9.61
695.216	9.55
695.542	9.65
695.869	9.64
696.196	9.68
696.522	9.6
696.848	9.55
697.175	9.44
697.501	9.37
697.827	9.34
698.154	9.23
698.48	9.17
698.806	9.15
699.132	9.08
699.458	9.13
699.784	9.07
700.11	9.06
700.435	9.05
700.761	9.1
701.087	9.07
701.413	9.02
701.738	9.06
702.064	8.97
702.389	8.84
702.715	8.79
703.04	8.68
703.366	8.68
703.691	8.62
704.016	8.56
704.341	8.6
704.666	8.6
704.992	8.67
705.317	8.62
705.642	8.68
705.967	8.85
706.291	8.84
706.616	8.93
706.941	9.02
707.266	9.17
707.59	9.31
707.915	9.19
708.24	9.1
708.564	8.92
708.889	8.82
709.213	8.77
709.537	8.58
709.862	8.51
710.186	8.36
710.51	8
710.834	7.82
711.158	7.63
711.482	7.68
711.806	7.64
712.13	7.69
712.454	7.84
712.778	7.9
713.102	8.03
713.426	8.11
713.749	8.26
714.073	8.45
714.396	8.55
714.72	8.67
715.043	8.65
715.367	8.76
715.69	8.8
716.013	8.7
716.337	8.66
716.66	8.66
716.983	8.69
717.306	8.76
717.629	8.85
717.952	8.7
718.275	8.66
718.598	8.59
718.921	8.57
719.243	8.62
719.566	8.61
719.889	8.59
720.211	8.66
720.534	8.69
720.856	8.49
721.179	8.34
721.501	8.57
721.823	8.7
722.146	8.74
722.468	8.74
722.79	8.62
723.112	8.65
723.434	8.63
723.756	8.51
724.078	8.41
724.4	8.34
724.722	8.48
725.044	8.34
725.366	8.22
725.687	8.12
726.009	8.09
726.33	8.1
726.652	8.14
726.973	8.26
727.295	8.2
727.616	8.17
727.938	8.19
728.259	8
728.58	8.01
728.901	7.92
729.222	8.11
729.543	8.13
729.864	8.17
730.185	8.19
730.506	7.83
730.827	7.96
731.148	7.96
731.468	8.1
731.789	8.14
732.11	8.15
732.43	8.37
732.751	8.47
733.071	8.43
733.392	8.39
733.712	8.42
734.032	8.67
734.352	8.52
734.673	8.46
734.993	8.31
735.313	8.42
735.633	8.48
735.953	8.2
736.273	7.84
736.593	7.88
736.912	7.98
737.232	7.89
737.552	7.79
737.871	7.91
738.191	8.18
738.51	8.4
738.83	8.35
739.149	8.35
739.469	8.48
739.788	8.85
740.107	8.84
740.426	8.92
740.746	8.99
741.065	9.03
741.384	8.99
741.703	8.63
742.022	8.57
742.341	8.52
742.659	8.62
742.978	8.43
743.297	8.05
743.615	7.96
743.934	7.57
744.253	7.45
744.571	7.4
744.89	7.22
745.208	7.51
745.526	7.57
745.845	7.49
746.163	7.23
746.481	7.52
746.799	7.4
747.117	7.35
747.435	7.49
747.753	7.35
748.071	7.22
748.389	7.37
748.706	7.07
749.024	6.79
749.342	6.74
749.659	6.98
749.977	6.77
750.295	7.03
750.612	6.85
750.929	6.87
751.247	6.89
751.564	7.05
751.881	7.17
752.198	7.6
752.516	7.66
752.833	7.78
753.15	7.51
753.467	7.58
753.783	7.62
754.1	7.88
754.417	7.97
754.734	8.11
755.05	8.23
755.367	8.41
755.684	8.09
756.0	7.92
756.317	7.83
756.633	7.94
756.949	7.91
757.266	7.81
757.582	7.77
757.898	7.98
758.214	8.1
758.53	8.02
758.846	7.63
759.162	7.62
759.478	7.56
759.794	7.55
760.11	7.8
760.426	7.88
760.741	7.74
761.057	7.67
761.372	7.57
761.688	7.48
762.003	7.48
762.319	7.57
762.634	7.66
762.949	7.51
763.265	7.4
763.58	7.16
763.895	6.98
764.21	7.03
764.525	7.41
764.84	7.38
765.155	7.34
765.47	7.35
765.785	7.32
766.099	7.22
766.414	7.62
766.729	7.8
767.043	7.89
767.358	7.84
767.672	8.08
767.987	7.79
768.301	7.83
768.615	7.97
768.929	7.97
769.244	7.88
769.558	7.98
769.872	8.05
770.186	8.09
770.5	8
770.814	8.26
771.127	7.93
771.441	7.68
771.755	7.27
772.069	6.94
772.382	7.02
772.696	7.47
773.009	7.2
773.323	6.88
773.636	6.69
773.95	6.66
774.263	6.77
774.576	6.78
774.889	7.24
775.202	7.91
775.515	8.01
775.828	7.73
776.141	7.45
776.454	7.71
776.767	7.41
777.08	7.52
777.393	7.5
777.705	7.03
778.018	7.04
778.33	6.7
778.643	5.81
778.955	5.72
779.268	6.13
779.58	6.02
779.892	5.76
780.205	5.98
780.517	6.09
780.829	6.03
781.141	6.24
781.453	6.52
781.765	6.84
782.077	6.87
782.388	6.8
782.7	6.37
783.012	6.43
783.324	6.84
783.635	7.34
783.947	7.23
784.258	7.53
784.57	8.15
784.881	7.87
785.192	7.83
785.504	8.47
785.815	8.88
786.126	8.6
786.437	8.94
786.748	9.06
787.059	8.95
787.37	9.34
787.681	9.13
787.992	8.7
788.302	9.08
788.613	9.14
788.924	9.09
789.234	9.1
789.545	9.63
789.855	9.37
790.166	9.12
790.476	8.94
790.786	8.12
791.096	8.02
791.407	8.04
791.717	8.09
792.027	7.71
792.337	7.65
792.647	7.36
792.957	7.28
793.266	6.99
793.576	6.85
793.886	7.28
794.196	8.08
794.505	8.75
794.815	8.37
795.124	8.21
795.434	8.36
795.743	8.33
796.052	8.61
796.362	8.41
796.671	8.76
796.98	8.8
797.289	8.09
797.598	7.42
797.907	6.68
798.216	7.23
798.525	7.06
798.834	6.6
799.142	6.63
799.451	6.34
799.76	6.23
800.068	6.18
800.377	6.09
800.685	6.38
800.994	6.7
801.302	6.34
801.61	6.4
801.918	6.43
802.227	6.75
802.535	6.08
802.843	6.15
803.151	5.88
803.459	5.89
803.767	5.54
804.074	5.73
804.382	5.9
804.69	6.33
804.998	5.97
805.305	5.97
805.613	6.08
805.92	6.73
806.228	6.23
806.535	6.43
806.842	5.99
807.15	5.88
807.457	5.11
807.764	4.85
808.071	4.95
808.378	5.08
808.685	5.14
808.992	5.68
809.299	5.62
809.605	6.44
809.912	7.08
810.219	6.55
810.525	8
810.832	8.33
811.138	7.91
811.445	7.94
811.751	7.07
812.058	6.46
812.364	5.96
812.67	6.34
812.976	5.57
813.282	5.75
813.588	6.37
813.894	5.45
814.2	5.72
814.506	6.12
814.812	6.89
815.118	7.59
815.423	8.54
815.729	7.81
816.035	7.43
816.34	7.92
816.646	7.06
816.951	6.87
817.256	6.87
817.562	7.6
817.867	7.66
818.172	7.03
818.477	7.22
818.782	7.78
819.087	7.97
819.392	7.66
819.697	6.96
820.002	7.45
820.306	7.53
820.611	7.22
820.916	6.98
821.22	7.21
821.525	7.13
821.829	7
822.134	6.12
822.438	6.15
822.742	6.05
823.047	6.43
823.351	6.51
823.655	6.53
823.959	6.56
824.263	6.34
824.567	6.48
824.871	6.3
825.174	6.41
825.478	8.13
825.782	8.53
826.086	8.84
826.389	8.92
826.693	8.72
826.996	8.63
827.3	8.66
827.603	8.75
827.906	8.32
828.209	8.37
828.513	8.22
828.816	6.48
829.119	6.16
829.422	5.94
829.725	5.92
830.028	6.17
830.33	6.41
830.633	6.88
830.936	6.68
831.238	6.99
831.541	7.56
831.844	7.66
832.146	7.3
832.448	7.11
832.751	7.43
833.053	7.46
833.355	7.77
833.657	7.85
833.96	7.15
834.262	6.95
834.564	7.02
834.865	6.96
835.167	6.84
835.469	6.48
835.771	6.65
836.073	6.37
836.374	6.05
836.676	5.16
836.977	5.27
837.279	5.43
837.58	6.13
837.882	6.73
838.183	6.46
838.484	6.92
838.785	7.56
839.086	8.33
839.387	8.61
839.688	9.16
839.989	9.52
840.29	9.23
840.591	9.18
840.892	8.84
841.192	8.73
841.493	8.41
841.794	8.15
842.094	8.03
842.394	7.65
842.695	7.65
842.995	7.65
843.295	7.65
843.596	7.65
843.896	7.65
844.196	7.65
844.496	7.65
844.796	7.65
845.096	7.65
845.396	7.65
845.695	7.65
845.995	2.19
846.295	2.36
846.594	3.4
846.894	3.49
847.194	5.44
847.493	3.96
847.792	3.9
848.092	3.1
848.391	4.31
848.69	4.56
848.989	4.98
849.288	2.76
849.587	4.01
849.886	3.23
850.185	3.6
850.484	2.84
850.783	5.56
851.081	5.53
851.38	5.58
851.679	3.83
851.977	3.16
852.276	3.15
852.574	3.73
852.872	2.1
853.171	2.81
853.469	3.54
853.767	1.91
854.065	1.91
854.363	1.91
854.661	0.12
854.959	2.58
855.257	3.59
855.555	5.64
855.853	7.39
856.15	7.41
856.448	6.14
856.746	2.46
857.043	1.82
857.341	4.47
857.638	4.34
857.935	2.97
858.233	0.3
858.53	0.3
858.827	0.3
859.124	0.53
859.421	1.71
859.718	3.91
860.015	5.29
860.312	6.94
860.609	6.56
860.905	5.64
861.202	8.41
861.499	7.56
861.795	10.84
862.092	9.14
862.388	4.13
862.684	3.03
862.981	3.03
863.277	0.13
863.573	1.05
863.869	0.55
864.165	0.55
864.461	0.55
864.757	0.55
865.053	0.55
865.349	0.55
865.645	0.55
865.94	0.55
866.236	5.2
866.532	6.41
866.827	10.42
867.123	10.67
867.418	14.79
867.713	17.9
868.009	15.31
868.304	14.6
868.599	17.92
868.894	19.5
869.189	17.14
869.484	16.3
869.779	14.26
870.074	7.59
870.369	7.65
870.663	6.71
870.958	6.51
871.252	8.18
871.547	9.54
871.842	6.96
872.136	7.26
872.43	9.39
872.725	6.42
873.019	5.64
873.313	7.96
873.607	6.65
873.901	6.36
874.195	7.32
874.489	6.68
874.783	5.24
875.077	3.61
875.37	1.61
875.664	0.05
875.958	0.05
876.251	1.79
876.545	1.74
876.838	1.74
877.132	1.74
877.425	1.74
877.718	1.74
878.011	1.74
878.305	4.1
878.598	4.02
878.891	3.86
879.184	7.47
879.476	9.36
879.769	10.56
880.062	11.53
880.355	11.66
880.647	10.4
880.94	8.28
881.232	9.38
881.525	5.98
881.817	4.6
882.11	5.49
882.402	5.02
882.694	3.96
882.986	3.41
883.278	5.11
883.57	6.08
883.862	7.81
884.154	8.2
884.446	8.06
884.738	7.99
885.03	8.97
885.321	9
885.613	9.09
885.904	9.02
886.196	9.58
886.487	9.43
886.779	9.56
887.07	9.24
887.361	8.9
887.652	8.97
887.943	8.97
888.234	8.57
888.525	9.44
888.816	10.62
889.107	12.58
889.398	12.88
889.689	13.63
889.979	14.93
890.27	14.11
890.56	16.4
890.851	17.81
891.141	20.77
891.432	23.44
891.722	23.34
