Data from groin3_Reflection__0__12-15-04-687.txt Node

Date: Thu Aug 04 12:15:04 AEST 2022
User: kathy
Spectrometer: JAZA2503
Trigger mode: 0
Integration Time (sec): 2.883200E-1
Scans to average: 10
Electric dark correction enabled: true
Nonlinearity correction enabled: true
Boxcar width: 5
XAxis mode: Wavelengths
Number of Pixels in Spectrum: 2048
>>>>>Begin Spectral Data<<<<<
189.467	-113.37
189.852	-303.28
190.237	-6886.99
190.622	-394.43
191.007	-111.01
191.392	-120.01
191.777	27.2
192.162	-196.33
192.546	-218.02
192.931	-387.15
193.316	-334.08
193.701	-245.1
194.086	177.56
194.47	118.95
194.855	227.96
195.24	3784.39
195.624	67.73
196.009	5.89
196.393	-126.07
196.778	144.26
197.163	131.6
197.547	92.92
197.931	93.75
198.316	91.91
198.7	75.82
199.085	61.24
199.469	54.38
199.853	48.87
200.237	48.33
200.622	35.1
201.006	33.11
201.39	30.94
201.774	30.06
202.158	26.79
202.542	17.5
202.926	9.64
203.31	1.94
203.694	4.88
204.078	0.29
204.462	-5.14
204.846	8.4
205.23	2.71
205.614	-0.41
205.998	-10.64
206.381	-5.48
206.765	0.85
207.149	4.78
207.532	12.44
207.916	9.04
208.3	13.36
208.683	10.06
209.067	0.57
209.45	11.16
209.834	12.56
210.217	17.09
210.601	17.24
210.984	19.6
211.367	25.39
211.751	24.33
212.134	25.15
212.517	25.43
212.901	32.86
213.284	35.37
213.667	33.62
214.05	34.78
214.433	31.76
214.816	33.15
215.199	32.1
215.582	29.17
215.965	23.75
216.348	19.79
216.731	19.45
217.114	12.72
217.497	8.78
217.88	6.93
218.262	5.04
218.645	7.81
219.028	4.78
219.411	6.52
219.793	5.96
220.176	11.79
220.559	11.76
220.941	11.23
221.324	11.55
221.706	12.89
222.089	11.98
222.471	12.94
222.853	11.55
223.236	11.35
223.618	6.81
224	7.13
224.383	4.24
224.765	5.68
225.147	5.52
225.529	6.05
225.912	6.7
226.294	6.09
226.676	5.13
227.058	4.55
227.44	3.99
227.822	4.31
228.204	3.71
228.586	3.98
228.968	3.31
229.349	2.8
229.731	2.73
230.113	2.22
230.495	2.22
230.877	2.11
231.258	2.26
231.64	2.21
232.022	1.99
232.403	2.27
232.785	2.67
233.166	2.9
233.548	3.16
233.929	3.22
234.311	3.34
234.692	3.23
235.073	3.51
235.455	3.48
235.836	3.41
236.217	3.35
236.599	2.78
236.98	1.91
237.361	1.46
237.742	0.96
238.123	0.62
238.504	0.61
238.885	0.66
239.266	0.56
239.647	0.3
240.028	0.4
240.409	0.61
240.79	0.85
241.171	1.16
241.552	1.4
241.933	1.54
242.313	1.71
242.694	1.8
243.075	1.92
243.456	1.84
243.836	2.04
244.217	1.99
244.597	2
244.978	1.99
245.358	1.94
245.739	1.91
246.119	1.8
246.5	1.71
246.88	1.66
247.26	1.55
247.641	1.52
248.021	1.49
248.401	1.49
248.781	1.53
249.162	1.54
249.542	1.48
249.922	1.48
250.302	1.63
250.682	1.54
251.062	1.53
251.442	1.4
251.822	1.48
252.202	1.44
252.582	1.37
252.961	1.23
253.341	1.16
253.721	1.26
254.101	1.21
254.48	1.18
254.86	1.18
255.24	1.11
255.619	1.44
255.999	1.19
256.378	1.08
256.758	1.16
257.137	1.27
257.517	1.36
257.896	1.28
258.276	1.18
258.655	1.03
259.034	1.03
259.414	0.99
259.793	0.87
260.172	0.93
260.551	0.89
260.93	0.85
261.309	0.81
261.688	0.76
262.068	0.8
262.447	0.87
262.825	0.88
263.204	0.88
263.583	0.95
263.962	1.08
264.341	1.17
264.72	1.24
265.099	1.2
265.477	1.18
265.856	1.17
266.235	1.1
266.613	0.99
266.992	1.01
267.371	1
267.749	1.07
268.128	0.92
268.506	0.93
268.884	0.99
269.263	1
269.641	0.99
270.02	0.96
270.398	0.94
270.776	1.06
271.154	1.05
271.533	1.05
271.911	0.95
272.289	0.94
272.667	0.92
273.045	0.86
273.423	0.9
273.801	0.87
274.179	0.87
274.557	0.87
274.935	0.81
275.313	0.79
275.69	0.8
276.068	0.77
276.446	0.82
276.824	0.79
277.201	0.8
277.579	0.75
277.957	0.78
278.334	0.74
278.712	0.72
279.089	0.69
279.467	0.78
279.844	0.76
280.222	0.76
280.599	0.78
280.976	0.74
281.354	0.71
281.731	0.75
282.108	0.82
282.485	0.88
282.863	0.92
283.24	0.97
283.617	0.96
283.994	0.97
284.371	1.05
284.748	1.06
285.125	1.13
285.502	1.16
285.879	1.16
286.256	1.16
286.633	1.21
287.009	1.26
287.386	1.3
287.763	1.37
288.139	1.44
288.516	1.46
288.893	1.46
289.269	1.47
289.646	1.57
290.022	1.64
290.399	1.61
290.775	1.61
291.152	1.61
291.528	1.59
291.904	1.54
292.281	1.55
292.657	1.57
293.033	1.61
293.41	1.65
293.786	1.64
294.162	1.68
294.538	1.79
294.914	1.85
295.29	1.89
295.666	1.96
296.042	2.02
296.418	2.11
296.794	2.16
297.17	2.19
297.546	2.24
297.921	2.3
298.297	2.35
298.673	2.38
299.048	2.43
299.424	2.49
299.8	2.54
300.175	2.62
300.551	2.65
300.926	2.7
301.302	2.77
301.677	2.82
302.053	2.9
302.428	2.91
302.803	2.96
303.179	3.02
303.554	3.08
303.929	3.15
304.304	3.21
304.68	3.25
305.055	3.35
305.43	3.39
305.805	3.46
306.18	3.48
306.555	3.55
306.93	3.59
307.305	3.6
307.679	3.63
308.054	3.61
308.429	3.58
308.804	3.61
309.179	3.59
309.553	3.59
309.928	3.61
310.303	3.64
310.677	3.67
311.052	3.7
311.426	3.72
311.801	3.72
312.175	3.78
312.55	3.85
312.924	3.88
313.298	3.91
313.673	3.98
314.047	4.01
314.421	3.99
314.795	4.02
315.17	4.05
315.544	4.1
315.918	4.16
316.292	4.2
316.666	4.26
317.04	4.32
317.414	4.4
317.788	4.49
318.162	4.59
318.535	4.75
318.909	4.87
319.283	4.97
319.657	5.13
320.03	5.3
320.404	5.51
320.778	5.86
321.151	6.36
321.525	6.92
321.898	7.57
322.272	8.29
322.645	9
323.019	9.77
323.392	10.62
323.765	11.58
324.139	12.52
324.512	13.45
324.885	14.48
325.258	15.38
325.632	16.19
326.005	16.87
326.378	17.42
326.751	17.83
327.124	18.17
327.497	18.34
327.87	18.52
328.243	18.59
328.616	18.75
328.988	18.8
329.361	18.78
329.734	18.76
330.107	18.65
330.479	18.56
330.852	18.44
331.225	18.42
331.597	18.26
331.97	18.15
332.342	17.94
332.715	17.76
333.087	17.54
333.46	17.31
333.832	17.19
334.204	17.11
334.577	17.08
334.949	17
335.321	16.9
335.693	16.85
336.065	16.62
336.438	16.44
336.81	16.33
337.182	16.24
337.554	16.16
337.926	16.01
338.298	15.94
338.669	15.75
339.041	15.64
339.413	15.55
339.785	15.45
340.157	15.39
340.528	15.32
340.9	15.25
341.272	15.18
341.643	15.16
342.015	15.2
342.386	15.27
342.758	15.36
343.129	15.47
343.501	15.59
343.872	15.62
344.243	15.62
344.615	15.56
344.986	15.56
345.357	15.53
345.728	15.48
346.099	15.45
346.471	15.43
346.842	15.39
347.213	15.34
347.584	15.32
347.955	15.3
348.326	15.28
348.697	15.28
349.067	15.27
349.438	15.36
349.809	15.44
350.18	15.56
350.55	15.61
350.921	15.68
351.292	15.74
351.662	15.8
352.033	15.85
352.403	15.88
352.774	15.88
353.144	15.93
353.515	15.91
353.885	15.9
354.255	15.87
354.626	15.85
354.996	15.84
355.366	15.83
355.736	15.84
356.107	15.82
356.477	15.82
356.847	15.8
357.217	15.79
357.587	15.84
357.957	15.89
358.327	15.91
358.697	15.93
359.066	15.93
359.436	15.96
359.806	15.96
360.176	16.01
360.546	16
360.915	16.03
361.285	16.03
361.654	16.02
362.024	16.02
362.393	16.03
362.763	16.05
363.132	16.06
363.502	16.06
363.871	16.07
364.24	16.07
364.61	16.12
364.979	16.16
365.348	16.2
365.717	16.24
366.087	16.25
366.456	16.29
366.825	16.34
367.194	16.4
367.563	16.43
367.932	16.48
368.301	16.53
368.669	16.55
369.038	16.57
369.407	16.58
369.776	16.62
370.145	16.65
370.513	16.67
370.882	16.68
371.25	16.69
371.619	16.77
371.988	16.79
372.356	16.83
372.724	16.86
373.093	16.9
373.461	16.92
373.83	16.94
374.198	17
374.566	17.03
374.934	17.05
375.303	17.09
375.671	17.09
376.039	17.11
376.407	17.13
376.775	17.15
377.143	17.19
377.511	17.26
377.879	17.27
378.247	17.32
378.615	17.36
378.982	17.42
379.35	17.47
379.718	17.49
380.086	17.55
380.453	17.6
380.821	17.64
381.188	17.67
381.556	17.71
381.923	17.78
382.291	17.79
382.658	17.8
383.026	17.83
383.393	17.87
383.76	17.91
384.128	17.92
384.495	17.93
384.862	17.96
385.229	17.99
385.596	18
385.963	18.03
386.33	18.05
386.697	18.11
387.064	18.14
387.431	18.14
387.798	18.18
388.165	18.22
388.532	18.23
388.899	18.25
389.265	18.26
389.632	18.27
389.999	18.27
390.365	18.26
390.732	18.25
391.098	18.24
391.465	18.27
391.831	18.26
392.198	18.27
392.564	18.31
392.93	18.32
393.297	18.35
393.663	18.37
394.029	18.42
394.395	18.48
394.762	18.53
395.128	18.6
395.494	18.63
395.86	18.68
396.226	18.7
396.592	18.72
396.958	18.77
397.323	18.8
397.689	18.85
398.055	18.86
398.421	18.89
398.787	18.92
399.152	18.92
399.518	18.95
399.883	18.98
400.249	19.01
400.615	19.05
400.98	19.08
401.345	19.11
401.711	19.14
402.076	19.13
402.442	19.12
402.807	19.12
403.172	19.13
403.537	19.12
403.902	19.14
404.268	19.14
404.633	19.14
404.998	19.12
405.363	19.1
405.728	19.08
406.093	19.1
406.457	19.1
406.822	19.12
407.187	19.14
407.552	19.15
407.917	19.17
408.281	19.19
408.646	19.2
409.011	19.23
409.375	19.27
409.74	19.29
410.104	19.29
410.469	19.31
410.833	19.29
411.197	19.28
411.562	19.29
411.926	19.26
412.29	19.24
412.655	19.24
413.019	19.22
413.383	19.21
413.747	19.23
414.111	19.26
414.475	19.32
414.839	19.34
415.203	19.37
415.567	19.4
415.931	19.45
416.295	19.49
416.658	19.5
417.022	19.53
417.386	19.53
417.749	19.51
418.113	19.51
418.477	19.48
418.84	19.48
419.204	19.49
419.567	19.48
419.931	19.49
420.294	19.5
420.657	19.53
421.021	19.58
421.384	19.63
421.747	19.68
422.11	19.72
422.473	19.76
422.836	19.8
423.199	19.8
423.562	19.83
423.925	19.84
424.288	19.82
424.651	19.84
425.014	19.83
425.377	19.82
425.74	19.82
426.102	19.82
426.465	19.85
426.828	19.85
427.19	19.87
427.553	19.91
427.916	19.91
428.278	19.94
428.641	19.93
429.003	19.94
429.365	19.95
429.728	19.97
430.09	19.94
430.452	19.87
430.814	19.84
431.177	19.82
431.539	19.8
431.901	19.84
432.263	19.87
432.625	19.89
432.987	19.92
433.349	19.96
433.711	20
434.072	20.05
434.434	20.14
434.796	20.23
435.158	20.33
435.519	20.41
435.881	20.44
436.243	20.49
436.604	20.52
436.966	20.53
437.327	20.55
437.689	20.57
438.05	20.56
438.411	20.57
438.773	20.59
439.134	20.57
439.495	20.56
439.856	20.56
440.218	20.59
440.579	20.61
440.94	20.62
441.301	20.65
441.662	20.66
442.023	20.74
442.384	20.76
442.745	20.77
443.105	20.78
443.466	20.79
443.827	20.79
444.188	20.78
444.548	20.79
444.909	20.83
445.269	20.84
445.63	20.85
445.99	20.81
446.351	20.83
446.711	20.81
447.072	20.85
447.432	20.89
447.792	20.93
448.153	20.96
448.513	20.96
448.873	20.98
449.233	20.97
449.593	20.96
449.953	20.98
450.313	20.99
450.673	20.99
451.033	20.99
451.393	20.97
451.753	20.98
452.113	21.44
452.472	21.44
452.832	21.39
453.192	21.38
453.551	21.37
453.911	21.35
454.271	21.32
454.63	21.32
454.989	21.34
455.349	21.36
455.708	21.37
456.068	21.13
456.427	21.17
456.786	21.21
457.145	21.26
457.505	21.3
457.864	21.38
458.223	21.48
458.582	21.57
458.941	21.66
459.3	21.71
459.659	21.77
460.018	21.81
460.376	21.83
460.735	21.84
461.094	21.85
461.453	21.87
461.811	21.86
462.17	21.85
462.529	21.84
462.887	21.8
463.246	21.8
463.604	21.79
463.963	21.81
464.321	21.91
464.679	21.92
465.038	21.95
465.396	21.97
465.754	22
466.112	22.01
466.47	22.04
466.828	22.08
467.186	22.11
467.544	22.14
467.902	22.17
468.26	22.09
468.618	22.1
468.976	22.09
469.334	22.08
469.692	22.07
470.049	22.05
470.407	21.99
470.765	21.95
471.122	21.92
471.48	21.92
471.837	21.94
472.195	21.95
472.552	21.97
472.909	21.99
473.267	22.02
473.624	22.05
473.981	22.08
474.338	22.1
474.696	22.13
475.053	22.15
475.41	22.13
475.767	22.11
476.124	22.11
476.481	22.1
476.838	22.1
477.194	22.1
477.551	22.09
477.908	22.08
478.265	22.1
478.621	22.09
478.978	22.08
479.335	22.1
479.691	22.1
480.048	22.12
480.404	22.1
480.761	22.11
481.117	22.1
481.473	22.1
481.83	22.12
482.186	22.11
482.542	22.12
482.898	22.12
483.255	22.12
483.611	22.13
483.967	22.14
484.323	22.18
484.679	22.19
485.035	22.21
485.39	22.21
485.746	22.2
486.102	22.21
486.458	22.2
486.814	22.2
487.169	22.19
487.525	22.18
487.88	22.17
488.236	22.16
488.591	22.15
488.947	22.14
489.302	22.11
489.658	22.1
490.013	22.08
490.368	22.07
490.723	22.05
491.079	22.04
491.434	22.04
491.789	22.02
492.144	22
492.499	21.99
492.854	21.98
493.209	21.99
493.564	22.01
493.919	22.01
494.273	22.01
494.628	22.01
494.983	22.01
495.338	21.99
495.692	21.97
496.047	21.97
496.401	21.95
496.756	21.92
497.11	21.88
497.465	21.82
497.819	21.81
498.173	21.8
498.528	21.8
498.882	21.82
499.236	21.82
499.59	21.85
499.944	21.86
500.298	21.88
500.652	21.89
501.006	21.9
501.36	21.91
501.714	21.9
502.068	21.91
502.422	21.9
502.776	21.9
503.129	21.91
503.483	21.91
503.837	21.93
504.19	21.94
504.544	21.94
504.897	21.93
505.251	21.91
505.604	21.87
505.958	21.83
506.311	21.78
506.664	21.73
507.017	21.65
507.371	21.58
507.724	21.49
508.077	21.4
508.43	21.35
508.783	21.31
509.136	21.28
509.489	21.26
509.842	21.23
510.195	21.2
510.547	21.17
510.9	21.15
511.253	21.11
511.606	21.05
511.958	21.01
512.311	20.94
512.663	20.86
513.016	20.79
513.368	20.73
513.721	20.68
514.073	20.62
514.425	20.57
514.778	20.53
515.13	20.5
515.482	20.46
515.834	20.44
516.186	20.42
516.538	20.42
516.89	20.43
517.242	20.44
517.594	20.46
517.946	20.49
518.298	20.49
518.65	20.49
519.001	20.46
519.353	20.44
519.705	20.39
520.056	20.33
520.408	20.24
520.759	20.15
521.111	20.07
521.462	20.01
521.814	19.95
522.165	19.88
522.516	19.83
522.868	19.81
523.219	19.75
523.57	19.7
523.921	19.66
524.272	19.62
524.623	19.59
524.974	19.53
525.325	19.42
525.676	19.33
526.027	19.27
526.378	19.19
526.728	19.13
527.079	19.08
527.43	19.04
527.78	19.01
528.131	18.97
528.481	18.93
528.832	18.9
529.182	18.88
529.533	18.87
529.883	18.84
530.233	18.79
530.584	18.73
530.934	18.69
531.284	18.65
531.634	18.59
531.984	18.55
532.334	18.5
532.684	18.45
533.034	18.39
533.384	18.33
533.734	18.3
534.084	18.26
534.434	18.22
534.783	18.17
535.133	18.1
535.483	18.03
535.832	17.97
536.182	17.91
536.531	17.85
536.881	17.8
537.23	17.75
537.58	17.66
537.929	17.59
538.278	17.99
538.628	17.91
538.977	17.86
539.326	17.81
539.675	17.74
540.024	17.67
540.373	17.6
540.722	17.52
541.071	17.45
541.42	17.43
541.769	17.39
542.117	16.87
542.466	16.82
542.815	16.76
543.163	16.71
543.512	16.67
543.861	16.65
544.209	16.61
544.558	16.55
544.906	16.51
545.254	16.43
545.603	16.38
545.951	16.35
546.299	16.35
546.647	16.36
546.996	16.35
547.344	16.32
547.692	16.27
548.04	16.24
548.388	16.23
548.736	16.2
549.083	16.17
549.431	16.13
549.779	16.07
550.127	15.99
550.475	15.9
550.822	15.8
551.17	15.72
551.517	15.67
551.865	15.63
552.212	15.57
552.56	15.56
552.907	15.5
553.254	15.43
553.602	15.37
553.949	15.29
554.296	15.22
554.643	15.18
554.99	15.15
555.337	15.08
555.684	14.97
556.031	14.9
556.378	14.79
556.725	14.72
557.072	14.69
557.419	14.64
557.765	14.61
558.112	14.55
558.459	14.5
558.805	14.46
559.152	14.41
559.498	14.37
559.845	14.31
560.191	14.25
560.538	14.22
560.884	14.13
561.23	14.04
561.576	13.94
561.923	13.86
562.269	13.78
562.615	13.71
562.961	13.63
563.307	13.59
563.653	13.54
563.999	13.47
564.344	13.42
564.69	13.39
565.036	13.37
565.382	13.39
565.727	13.38
566.073	13.33
566.419	13.26
566.764	13.21
567.11	13.18
567.455	13.13
567.8	13.08
568.146	13.03
568.491	12.97
568.836	12.91
569.181	12.84
569.527	12.79
569.872	12.77
570.217	12.71
570.562	12.68
570.907	12.62
571.252	12.59
571.597	12.57
571.941	12.53
572.286	12.5
572.631	12.5
572.976	12.47
573.32	12.44
573.665	12.41
574.009	12.37
574.354	12.35
574.698	12.34
575.043	12.33
575.387	12.3
575.731	12.29
576.076	12.27
576.42	12.26
576.764	12.21
577.108	12.18
577.452	12.16
577.796	12.13
578.14	12.07
578.484	12.04
578.828	12.03
579.172	12.01
579.516	11.96
579.86	11.9
580.203	11.85
580.547	11.83
580.891	11.81
581.234	11.77
581.578	11.74
581.921	11.72
582.264	11.7
582.608	11.65
582.951	11.62
583.294	11.59
583.638	11.59
583.981	11.55
584.324	11.55
584.667	11.51
585.01	11.45
585.353	11.46
585.696	11.46
586.039	11.46
586.382	11.45
586.725	11.42
587.067	11.41
587.41	11.41
587.753	11.4
588.095	11.38
588.438	11.37
588.781	11.35
589.123	11.33
589.465	11.3
589.808	11.29
590.15	11.27
590.492	11.26
590.835	11.21
591.177	11.15
591.519	11.15
591.861	11.13
592.203	11.11
592.545	11.11
592.887	11.09
593.229	11.09
593.571	11.02
593.913	11.01
594.254	10.97
594.596	10.95
594.938	10.93
595.279	10.92
595.621	10.9
595.963	10.89
596.304	10.87
596.645	10.87
596.987	10.86
597.328	10.83
597.669	10.81
598.011	10.82
598.352	10.82
598.693	10.81
599.034	10.8
599.375	10.79
599.716	10.79
600.057	10.78
600.398	10.73
600.739	10.73
601.08	10.72
601.42	10.7
601.761	10.68
602.102	10.65
602.442	10.62
602.783	10.58
603.123	10.56
603.464	10.54
603.804	10.53
604.145	10.48
604.485	10.46
604.825	10.44
605.166	10.41
605.506	10.37
605.846	10.35
606.186	10.33
606.526	10.29
606.866	10.28
607.206	10.25
607.546	10.21
607.886	10.19
608.225	10.16
608.565	10.13
608.905	10.09
609.245	10.06
609.584	10.05
609.924	10.05
610.263	10.02
610.603	10.01
610.942	10.01
611.281	10.02
611.621	10
611.96	9.96
612.299	9.98
612.638	10
612.978	9.99
613.317	9.97
613.656	9.95
613.995	9.92
614.334	9.89
614.672	9.87
615.011	9.87
615.35	9.86
615.689	9.84
616.027	9.82
616.366	9.82
616.705	9.82
617.043	9.8
617.382	9.78
617.72	9.74
618.059	9.71
618.397	9.67
618.735	9.63
619.073	9.61
619.412	9.6
619.75	9.55
620.088	9.52
620.426	9.49
620.764	9.46
621.102	9.45
621.44	9.43
621.778	9.42
622.115	9.39
622.453	9.34
622.791	9.34
623.129	9.33
623.466	9.31
623.804	9.28
624.141	9.25
624.479	9.21
624.816	9.2
625.153	9.2
625.491	9.19
625.828	9.19
626.165	9.18
626.502	9.18
626.84	9.15
627.177	9.13
627.514	9.09
627.851	9.05
628.188	9
628.524	8.97
628.861	8.95
629.198	8.96
629.535	8.92
629.871	8.89
630.208	8.83
630.545	8.83
630.881	8.8
631.218	8.8
631.554	8.79
631.89	8.78
632.227	8.78
632.563	8.73
632.899	8.71
633.235	8.71
633.572	8.72
633.908	8.7
634.244	8.65
634.58	8.58
634.916	8.56
635.251	8.55
635.587	8.52
635.923	8.48
636.259	8.48
636.595	8.43
636.93	8.4
637.266	8.37
637.601	8.32
637.937	8.31
638.272	8.35
638.608	8.34
638.943	8.3
639.278	8.3
639.613	8.28
639.949	8.26
640.284	8.25
640.619	8.26
640.954	8.21
641.289	8.24
641.624	8.23
641.959	8.15
642.294	8.08
642.628	8.06
642.963	8.01
643.298	7.96
643.632	8
643.967	7.93
644.302	7.82
644.636	7.81
644.971	7.75
645.305	7.71
645.639	7.72
645.974	7.63
646.308	7.56
646.642	7.54
646.976	7.52
647.31	7.42
647.644	7.4
647.978	7.37
648.312	7.34
648.646	7.31
648.98	7.28
649.314	7.24
649.647	7.3
649.981	7.3
650.315	7.25
650.648	7.21
650.982	7.17
651.315	7.19
651.649	7.19
651.982	7.2
652.316	7.16
652.649	7.13
652.982	7.13
653.315	7.08
653.648	7.1
653.982	7.11
654.315	7.04
654.648	7
654.981	6.99
655.313	7
655.646	6.95
655.979	6.99
656.312	6.93
656.644	6.9
656.977	6.9
657.31	6.84
657.642	6.82
657.975	6.84
658.307	6.85
658.64	6.87
658.972	6.85
659.304	6.86
659.636	6.82
659.969	6.83
660.301	6.85
660.633	6.82
660.965	6.83
661.297	6.83
661.629	6.85
661.961	6.85
662.292	6.74
662.624	6.75
662.956	6.71
663.288	6.71
663.619	6.68
663.951	6.64
664.282	6.61
664.614	6.56
664.945	6.51
665.276	6.48
665.608	6.45
665.939	6.44
666.27	6.33
666.601	6.35
666.933	6.36
667.264	6.36
667.595	6.33
667.926	6.36
668.256	6.37
668.587	6.41
668.918	6.43
669.249	6.47
669.58	6.45
669.91	6.48
670.241	6.47
670.571	6.43
670.902	6.51
671.232	6.49
671.563	6.4
671.893	6.37
672.223	6.32
672.554	6.33
672.884	6.26
673.214	6.26
673.544	6.29
673.874	6.27
674.204	6.27
674.534	6.16
674.864	6.17
675.194	6.18
675.524	6.21
675.853	6.21
676.183	6.12
676.513	6.11
676.842	6.15
677.172	6.18
677.501	6.22
677.831	6.25
678.16	6.26
678.489	6.3
678.819	6.3
679.148	6.3
679.477	6.28
679.806	6.25
680.135	6.23
680.464	6.18
680.793	6.08
681.122	6.01
681.451	5.86
681.78	5.86
682.108	5.79
682.437	5.79
682.766	5.72
683.094	5.68
683.423	5.64
683.751	5.59
684.08	5.53
684.408	5.47
684.737	5.51
685.065	5.51
685.393	5.5
685.721	5.5
686.049	5.48
686.377	5.49
686.705	5.48
687.033	5.54
687.361	5.62
687.689	5.7
688.017	5.8
688.345	5.73
688.673	5.83
689.0	5.78
689.328	5.73
689.655	5.82
689.983	5.83
690.31	5.88
690.638	5.82
690.965	5.73
691.292	5.64
691.62	5.62
691.947	5.62
692.274	5.53
692.601	5.55
692.928	5.62
693.255	5.49
693.582	5.48
693.909	5.4
694.236	5.49
694.562	5.57
694.889	5.66
695.216	5.71
695.542	5.83
695.869	5.81
696.196	5.77
696.522	5.71
696.848	5.78
697.175	5.75
697.501	5.8
697.827	5.74
698.154	5.7
698.48	5.56
698.806	5.57
699.132	5.47
699.458	5.53
699.784	5.59
700.11	5.56
700.435	5.57
700.761	5.6
701.087	5.48
701.413	5.45
701.738	5.45
702.064	5.51
702.389	5.36
702.715	5.35
703.04	5.39
703.366	5.27
703.691	5.33
704.016	5.29
704.341	5.27
704.666	5.31
704.992	5.31
705.317	5.27
705.642	5.29
705.967	5.38
706.291	5.42
706.616	5.31
706.941	5.4
707.266	5.47
707.59	5.59
707.915	5.67
708.24	5.79
708.564	5.86
708.889	5.9
709.213	5.95
709.537	5.86
709.862	5.82
710.186	5.84
710.51	5.78
710.834	5.66
711.158	5.56
711.482	5.44
711.806	5.38
712.13	5.33
712.454	5.28
712.778	5.3
713.102	5.29
713.426	5.27
713.749	5.27
714.073	5.39
714.396	5.36
714.72	5.26
715.043	5.24
715.367	5.2
715.69	5.17
716.013	5.28
716.337	5.26
716.66	5.39
716.983	5.43
717.306	5.37
717.629	5.21
717.952	5.27
718.275	5.33
718.598	5.33
718.921	5.32
719.243	5.38
719.566	5.49
719.889	5.5
720.211	5.27
720.534	5.33
720.856	5.39
721.179	5.47
721.501	5.37
721.823	5.39
722.146	5.51
722.468	5.58
722.79	5.53
723.112	5.13
723.434	5.05
723.756	5.19
724.078	5.1
724.4	5.06
724.722	5.18
725.044	5.16
725.366	4.86
725.687	4.77
726.009	4.68
726.33	4.59
726.652	4.86
726.973	4.75
727.295	4.82
727.616	4.69
727.938	4.82
728.259	4.78
728.58	4.65
728.901	4.87
729.222	4.82
729.543	4.84
729.864	4.92
730.185	4.7
730.506	4.72
730.827	4.67
731.148	4.62
731.468	4.33
731.789	4.26
732.11	4.34
732.43	4.25
732.751	4.41
733.071	4.4
733.392	4.49
733.712	4.57
734.032	4.73
734.352	4.74
734.673	4.9
734.993	5.06
735.313	5.01
735.633	5.52
735.953	5.75
736.273	5.79
736.593	5.87
736.912	5.8
737.232	5.92
737.552	5.76
737.871	5.72
738.191	5.87
738.51	6.02
738.83	6.24
739.149	5.88
739.469	5.95
739.788	5.7
740.107	5.68
740.426	5.63
740.746	5.62
741.065	5.69
741.384	5.72
741.703	5.56
742.022	5.5
742.341	5.32
742.659	5.19
742.978	4.87
743.297	5.11
743.615	5.05
743.934	5.09
744.253	5.04
744.571	5.12
744.89	5.22
745.208	5.18
745.526	5.16
745.845	5.05
746.163	4.93
746.481	5.11
746.799	5.01
747.117	5.01
747.435	5.15
747.753	5.28
748.071	5.13
748.389	5.22
748.706	5.12
749.024	5
749.342	5.22
749.659	5.53
749.977	5.46
750.295	5.59
750.612	5.64
750.929	5.36
751.247	5.41
751.564	5.27
751.881	5.14
752.198	5.51
752.516	5.66
752.833	5.56
753.15	5.33
753.467	5.12
753.783	4.89
754.1	5.03
754.417	5.23
754.734	4.86
755.05	5.34
755.367	5.05
755.684	4.79
756.0	4.74
756.317	4.69
756.633	4.52
756.949	4.84
757.266	4.9
757.582	4.74
757.898	4.56
758.214	4.5
758.53	4.29
758.846	4.46
759.162	4.24
759.478	4.12
759.794	4.31
760.11	4.53
760.426	4.31
760.741	4.25
761.057	4.15
761.372	4.13
761.688	4.48
762.003	4.5
762.319	4.54
762.634	4.8
762.949	4.8
763.265	4.86
763.58	4.76
763.895	4.68
764.21	4.79
764.525	4.75
764.84	4.8
765.155	4.78
765.47	4.82
765.785	4.75
766.099	4.82
766.414	4.81
766.729	4.67
767.043	4.82
767.358	4.98
767.672	4.81
767.987	4.85
768.301	4.97
768.615	4.99
768.929	4.87
769.244	5
769.558	5.36
769.872	5.36
770.186	5.35
770.5	5.22
770.814	4.88
771.127	5.36
771.441	5.31
771.755	5.5
772.069	5.26
772.382	4.87
772.696	4.77
773.009	4.18
773.323	4.26
773.636	4.26
773.95	4.44
774.263	5.12
774.576	4.39
774.889	4.83
775.202	4.78
775.515	5.29
775.828	5.36
776.141	5.49
776.454	5.43
776.767	5.31
777.08	5.19
777.393	5.13
777.705	4.67
778.018	4.89
778.33	4.88
778.643	4.99
778.955	4.38
779.268	4.38
779.58	4.38
779.892	4.78
780.205	4.81
780.517	5.01
780.829	5.36
781.141	5.89
781.453	6.04
781.765	5.92
782.077	5.15
782.388	5.34
782.7	5.51
783.012	5.64
783.324	5.57
783.635	5.71
783.947	5.87
784.258	4.99
784.57	4.51
784.881	4.38
785.192	3.96
785.504	4.47
785.815	4.19
786.126	4.45
786.437	4.74
786.748	4.24
787.059	4.41
787.37	4.28
787.681	4.77
787.992	5.19
788.302	5.45
788.613	5.87
788.924	5.92
789.234	6.59
789.545	6.53
789.855	6.28
790.166	6.19
790.476	5.97
790.786	5.94
791.096	5.91
791.407	5.9
791.717	5.54
792.027	5.64
792.337	4.93
792.647	4.51
792.957	4.75
793.266	4.75
793.576	5.04
793.886	4.73
794.196	4.62
794.505	8.73
794.815	8.58
795.124	9.1
795.434	9.1
795.743	9.44
796.052	9.6
796.362	9.06
796.671	8.51
796.98	8.85
797.289	9.12
797.598	8.79
797.907	4.97
798.216	4.86
798.525	4.61
798.834	4.49
799.142	5.03
799.451	5.28
799.76	5.94
800.068	6.16
800.377	6.14
800.685	6.85
800.994	7.13
801.302	7.1
801.61	7.15
801.918	6.87
802.227	6.57
802.535	6.55
802.843	6.26
803.151	5.93
803.459	5.96
803.767	5.57
804.074	4.58
804.382	4.4
804.69	6.18
804.998	6.24
805.305	6.92
805.613	7.05
805.92	6.94
806.228	6.77
806.535	5.77
806.842	5.49
807.15	5.4
807.457	5.49
807.764	5.5
808.071	3.85
808.378	3.86
808.685	3.66
808.992	3.95
809.299	4.18
809.605	4.65
809.912	6.12
810.219	6.42
810.525	6.87
810.832	6.69
811.138	6.75
811.445	6.85
811.751	6.24
812.058	5.39
812.364	5.42
812.67	5.15
812.976	4.11
813.282	3.06
813.588	2.75
813.894	2.5
814.2	2.93
814.506	3.46
814.812	2.96
815.118	3.94
815.423	4.62
815.729	4.88
816.035	4.86
816.34	5.97
816.646	7.1
816.951	8.21
817.256	8.37
817.562	8.68
817.867	8.31
818.172	8.16
818.477	7.62
818.782	7.44
819.087	7.4
819.392	7.13
819.697	6.1
820.002	5
820.306	4.72
820.611	4.27
820.916	4.08
821.22	4.29
821.525	4.18
821.829	4.38
822.134	4.68
822.438	4.32
822.742	4.31
823.047	4.46
823.351	4.64
823.655	4.59
823.959	4.56
824.263	4.51
824.567	4.53
824.871	4.72
825.174	4.8
825.478	6.06
825.782	6.31
826.086	6.52
826.389	6.78
826.693	6.96
826.996	7.02
827.3	7.28
827.603	7.52
827.906	7.68
828.209	7.92
828.513	8
828.816	6.33
829.119	6.3
829.422	6.43
829.725	6.16
830.028	6.08
830.33	5.89
830.633	6.09
830.936	5.99
831.238	5.51
831.541	5.09
831.844	5.16
832.146	5.48
832.448	5.44
832.751	5.06
833.053	5.39
833.355	5.94
833.657	5.79
833.96	5.75
834.262	5.53
834.564	6.01
834.865	5.97
835.167	6.92
835.469	6.35
835.771	5.98
836.073	5.57
836.374	5.21
836.676	4.5
836.977	4.69
837.279	4.37
837.58	4.88
837.882	4.64
838.183	5.05
838.484	3.28
838.785	3.57
839.086	3.9
839.387	4.71
839.688	5.57
839.989	5.88
840.29	6.18
840.591	7.03
840.892	6.47
841.192	7.4
841.493	6.49
841.794	7.25
842.094	6.94
842.394	7.13
842.695	7.13
842.995	7.13
843.295	7.13
843.596	7.13
843.896	7.13
844.196	7.13
844.496	7.13
844.796	7.13
845.096	7.13
845.396	7.13
845.695	7.13
845.995	8.88
846.295	11.12
846.594	12.2
846.894	12.77
847.194	12.22
847.493	11.54
847.792	11.47
848.092	9.93
848.391	8.51
848.69	12.12
848.989	11.9
849.288	9.72
849.587	8.48
849.886	7.63
850.185	6.72
850.484	8.16
850.783	9.16
851.081	10.29
851.38	11.61
851.679	13.58
851.977	12.48
852.276	12.54
852.574	14.1
852.872	13.94
853.171	13.63
853.469	11.37
853.767	10.03
854.065	9.59
854.363	6.3
854.661	7.51
854.959	6.73
855.257	3.98
855.555	2.31
855.853	2.96
856.15	4.41
856.448	6.76
856.746	8.55
857.043	7.68
857.341	10.94
857.638	17.42
857.935	14.66
858.233	13.88
858.53	16.81
858.827	18.17
859.124	16.68
859.421	15.29
859.718	14.56
860.015	16.47
860.312	18.25
860.609	14.03
860.905	11.81
861.202	13.67
861.499	15.67
861.795	16.03
862.092	15.79
862.388	14.38
862.684	15.17
862.981	13.24
863.277	9.63
863.573	9.49
863.869	11.52
864.165	7.66
864.461	7.78
864.757	5.53
865.053	4.72
865.349	5.4
865.645	6.35
865.94	6.03
866.236	6.99
866.532	10.91
866.827	10.92
867.123	12.53
867.418	14.03
867.713	12.7
868.009	13.6
868.304	13.9
868.599	13.41
868.894	13.23
869.189	14.45
869.484	15.81
869.779	15.08
870.074	16.36
870.369	14.97
870.663	16.02
870.958	17.11
871.252	15.38
871.547	15.12
871.842	16.23
872.136	14.27
872.43	12.81
872.725	11.97
873.019	10.32
873.313	9.82
873.607	8.05
873.901	5.27
874.195	7.01
874.489	7.44
874.783	3.88
875.077	1.46
875.37	7
875.664	8
875.958	9.05
876.251	10.45
876.545	10.02
876.838	11.87
877.132	15.7
877.425	15.7
877.718	17.76
878.011	21.44
878.305	23.94
878.598	18.42
878.891	16.83
879.184	17.55
879.476	17.27
879.769	15.34
880.062	13.19
880.355	10.58
880.647	10.88
880.94	8.71
881.232	7.57
881.525	4.5
881.817	5.57
882.11	6.2
882.402	4.41
882.694	1.79
882.986	2.46
883.278	3.73
883.57	4.11
883.862	3.54
884.154	3.99
884.446	4.2
884.738	4.96
885.03	5.28
885.321	5.44
885.613	5.58
885.904	6.81
886.196	7.26
886.487	7.21
886.779	7.16
887.07	7.18
887.361	7.27
887.652	7.61
887.943	7.25
888.234	7.69
888.525	7.38
888.816	7.09
889.107	6.87
889.398	7.06
889.689	7.66
889.979	8.04
890.27	9.3
890.56	9.92
890.851	9.7
891.141	10.87
891.432	10.72
891.722	12.94
