Data from groin3_Reflection__1__12-31-01-437.txt Node

Date: Thu Aug 04 12:31:01 AEST 2022
User: kathy
Spectrometer: JAZA2503
Trigger mode: 0
Integration Time (sec): 2.883200E-1
Scans to average: 10
Electric dark correction enabled: true
Nonlinearity correction enabled: true
Boxcar width: 5
XAxis mode: Wavelengths
Number of Pixels in Spectrum: 2048
>>>>>Begin Spectral Data<<<<<
189.467	-279.94
189.852	-571.75
190.237	-13638.55
190.622	-864.02
191.007	-307.95
191.392	-500.44
191.777	-723.06
192.162	99.19
192.546	-51.25
192.931	-327.11
193.316	-380.11
193.701	-707.43
194.086	351.24
194.47	275.35
194.855	684.91
195.24	15908.26
195.624	785.94
196.009	-683.67
196.393	-247.95
196.778	1679.1
197.163	243.24
197.547	101.86
197.931	82.74
198.316	84
198.7	69.87
199.085	42.19
199.469	45.16
199.853	39.11
200.237	40.63
200.622	36.33
201.006	32.42
201.39	32.52
201.774	29.13
202.158	28.22
202.542	22.48
202.926	15.52
203.31	14.12
203.694	12.82
204.078	12.55
204.462	16.18
204.846	23.5
205.23	19
205.614	21.04
205.998	17.69
206.381	23.97
206.765	27.07
207.149	29.95
207.532	32.16
207.916	29.82
208.3	29.07
208.683	26.05
209.067	20.58
209.45	24.05
209.834	20.38
210.217	20.17
210.601	15.17
210.984	13.31
211.367	14
211.751	13.45
212.134	13.28
212.517	15.07
212.901	14.16
213.284	17.22
213.667	19.17
214.05	21.42
214.433	20.82
214.816	24.93
215.199	27.17
215.582	24.89
215.965	25.57
216.348	22.84
216.731	23.64
217.114	19.85
217.497	14.9
217.88	9.84
218.262	4.19
218.645	5.63
219.028	2.12
219.411	0.02
219.793	-0.52
220.176	0.83
220.559	0.7
220.941	-3.19
221.324	-0.2
221.706	2.42
222.089	5.88
222.471	6.9
222.853	4.4
223.236	6.11
223.618	5.84
224	7.1
224.383	4.79
224.765	5.61
225.147	7.4
225.529	7.27
225.912	7.17
226.294	6.19
226.676	6.07
227.058	6.3
227.44	5.52
227.822	5.36
228.204	4.72
228.586	4.79
228.968	4.25
229.349	3.82
229.731	4.1
230.113	3.55
230.495	3.55
230.877	3.43
231.258	3.5
231.64	3.34
232.022	2.85
232.403	2.76
232.785	3.29
233.166	3.49
233.548	3.55
233.929	3.02
234.311	3.48
234.692	3.07
235.073	3.2
235.455	3.65
235.836	3.75
236.217	4.37
236.599	4.38
236.98	3.75
237.361	3.43
237.742	3.19
238.123	3.15
238.504	3.03
238.885	3.08
239.266	2.84
239.647	2.38
240.028	2.47
240.409	2.26
240.79	2.35
241.171	2.5
241.552	2.58
241.933	2.48
242.313	2.43
242.694	2.45
243.075	2.62
243.456	2.61
243.836	2.84
244.217	2.81
244.597	2.8
244.978	2.8
245.358	2.78
245.739	2.79
246.119	2.7
246.5	2.78
246.88	2.7
247.26	2.6
247.641	2.61
248.021	2.51
248.401	2.5
248.781	2.5
249.162	2.52
249.542	2.48
249.922	2.46
250.302	2.57
250.682	2.47
251.062	2.47
251.442	2.31
251.822	2.33
252.202	2.25
252.582	2.13
252.961	2.14
253.341	2.1
253.721	2.11
254.101	2.1
254.48	2.16
254.86	2.16
255.24	2.3
255.619	2.65
255.999	2.43
256.378	2.33
256.758	2.46
257.137	2.34
257.517	2.32
257.896	2.37
258.276	2.38
258.655	2.23
259.034	2.18
259.414	2.05
259.793	1.89
260.172	1.91
260.551	1.95
260.93	1.81
261.309	1.79
261.688	1.76
262.068	1.75
262.447	1.76
262.825	1.78
263.204	1.75
263.583	1.79
263.962	1.9
264.341	2.03
264.72	2.02
265.099	2.13
265.477	2.14
265.856	2.05
266.235	1.95
266.613	1.84
266.992	1.79
267.371	1.81
267.749	1.9
268.128	1.77
268.506	1.74
268.884	1.75
269.263	1.71
269.641	1.7
270.02	1.72
270.398	1.69
270.776	1.75
271.154	1.81
271.533	1.86
271.911	1.76
272.289	1.79
272.667	1.76
273.045	1.76
273.423	1.82
273.801	1.84
274.179	1.84
274.557	1.86
274.935	1.84
275.313	1.78
275.69	1.69
276.068	1.67
276.446	1.67
276.824	1.67
277.201	1.68
277.579	1.64
277.957	1.61
278.334	1.58
278.712	1.59
279.089	1.59
279.467	1.69
279.844	1.78
280.222	1.74
280.599	1.76
280.976	1.72
281.354	1.66
281.731	1.66
282.108	1.74
282.485	1.73
282.863	1.74
283.24	1.7
283.617	1.65
283.994	1.62
284.371	1.67
284.748	1.65
285.125	1.69
285.502	1.74
285.879	1.71
286.256	1.68
286.633	1.76
287.009	1.77
287.386	1.81
287.763	1.86
288.139	1.88
288.516	1.89
288.893	1.92
289.269	1.92
289.646	1.96
290.022	1.99
290.399	1.97
290.775	1.97
291.152	1.96
291.528	1.98
291.904	1.95
292.281	1.96
292.657	1.95
293.033	2.01
293.41	2.04
293.786	2.03
294.162	2.08
294.538	2.13
294.914	2.18
295.29	2.21
295.666	2.26
296.042	2.3
296.418	2.36
296.794	2.44
297.17	2.46
297.546	2.51
297.921	2.53
298.297	2.6
298.673	2.67
299.048	2.73
299.424	2.81
299.8	2.88
300.175	2.98
300.551	3.07
300.926	3.13
301.302	3.2
301.677	3.28
302.053	3.38
302.428	3.41
302.803	3.45
303.179	3.5
303.554	3.55
303.929	3.63
304.304	3.67
304.68	3.68
305.055	3.75
305.43	3.8
305.805	3.85
306.18	3.85
306.555	3.95
306.93	4
307.305	4.02
307.679	4.03
308.054	3.99
308.429	4.01
308.804	4.05
309.179	4.03
309.553	4.07
309.928	4.11
310.303	4.17
310.677	4.17
311.052	4.22
311.426	4.24
311.801	4.29
312.175	4.35
312.55	4.4
312.924	4.43
313.298	4.47
313.673	4.51
314.047	4.52
314.421	4.53
314.795	4.56
315.17	4.56
315.544	4.6
315.918	4.62
316.292	4.65
316.666	4.7
317.04	4.76
317.414	4.85
317.788	4.91
318.162	4.97
318.535	5.08
318.909	5.17
319.283	5.25
319.657	5.36
320.03	5.5
320.404	5.64
320.778	5.88
321.151	6.14
321.525	6.48
321.898	6.88
322.272	7.3
322.645	7.73
323.019	8.23
323.392	8.78
323.765	9.38
324.139	9.98
324.512	10.65
324.885	11.37
325.258	11.96
325.632	12.56
326.005	13.09
326.378	13.52
326.751	13.91
327.124	14.1
327.497	14.32
327.87	14.38
328.243	14.51
328.616	14.64
328.988	14.72
329.361	14.73
329.734	14.76
330.107	14.72
330.479	14.66
330.852	14.58
331.225	14.57
331.597	14.5
331.97	14.39
332.342	14.24
332.715	14.06
333.087	13.87
333.46	13.72
333.832	13.66
334.204	13.6
334.577	13.58
334.949	13.59
335.321	13.52
335.693	13.47
336.065	13.35
336.438	13.27
336.81	13.16
337.182	13.04
337.554	12.96
337.926	12.84
338.298	12.71
338.669	12.57
339.041	12.52
339.413	12.49
339.785	12.44
340.157	12.4
340.528	12.39
340.9	12.32
341.272	12.29
341.643	12.27
342.015	12.32
342.386	12.45
342.758	12.58
343.129	12.7
343.501	12.8
343.872	12.86
344.243	12.88
344.615	12.87
344.986	12.87
345.357	12.87
345.728	12.87
346.099	12.87
346.471	12.87
346.842	12.87
347.213	12.93
347.584	13
347.955	13.04
348.326	13.04
348.697	13.03
349.067	13.05
349.438	13.05
349.809	13.11
350.18	13.23
350.55	13.3
350.921	13.38
351.292	13.44
351.662	13.51
352.033	13.57
352.403	13.65
352.774	13.74
353.144	13.75
353.515	13.82
353.885	13.84
354.255	13.83
354.626	13.84
354.996	13.85
355.366	13.88
355.736	13.88
356.107	13.87
356.477	13.89
356.847	13.88
357.217	13.92
357.587	13.93
357.957	13.97
358.327	14.04
358.697	14.13
359.066	14.19
359.436	14.23
359.806	14.3
360.176	14.37
360.546	14.4
360.915	14.43
361.285	14.48
361.654	14.52
362.024	14.56
362.393	14.57
362.763	14.58
363.132	14.6
363.502	14.65
363.871	14.68
364.24	14.71
364.61	14.76
364.979	14.83
365.348	14.91
365.717	14.98
366.087	15.06
366.456	15.14
366.825	15.2
367.194	15.28
367.563	15.36
367.932	15.44
368.301	15.52
368.669	15.62
369.038	15.7
369.407	15.77
369.776	15.83
370.145	15.92
370.513	16
370.882	16.09
371.25	16.18
371.619	16.27
371.988	16.37
372.356	16.47
372.724	16.56
373.093	16.66
373.461	16.77
373.83	16.89
374.198	17
374.566	17.13
374.934	17.23
375.303	17.32
375.671	17.38
376.039	17.47
376.407	17.56
376.775	17.69
377.143	17.81
377.511	17.91
377.879	18.03
378.247	18.16
378.615	18.26
378.982	18.41
379.35	18.58
379.718	18.76
380.086	18.9
380.453	19.05
380.821	19.19
381.188	19.31
381.556	19.46
381.923	19.57
382.291	19.66
382.658	19.8
383.026	19.94
383.393	20.04
383.76	20.18
384.128	20.3
384.495	20.44
384.862	20.54
385.229	20.7
385.596	20.85
385.963	20.99
386.33	21.11
386.697	21.25
387.064	21.38
387.431	21.49
387.798	21.61
388.165	21.74
388.532	21.82
388.899	21.88
389.265	21.98
389.632	22.06
389.999	22.14
390.365	22.25
390.732	22.34
391.098	22.41
391.465	22.5
391.831	22.56
392.198	22.62
392.564	22.73
392.93	22.84
393.297	22.92
393.663	23.02
394.029	23.13
394.395	23.23
394.762	23.34
395.128	23.43
395.494	23.53
395.86	23.65
396.226	23.76
396.592	23.85
396.958	23.94
397.323	24.03
397.689	24.13
398.055	24.22
398.421	24.3
398.787	24.38
399.152	24.47
399.518	24.56
399.883	24.63
400.249	24.71
400.615	24.8
400.98	24.87
401.345	24.93
401.711	24.97
402.076	25
402.442	25.06
402.807	25.05
403.172	25.1
403.537	25.12
403.902	25.15
404.268	25.2
404.633	25.24
404.998	25.28
405.363	25.31
405.728	25.37
406.093	25.42
406.457	25.45
406.822	25.53
407.187	25.59
407.552	25.66
407.917	25.72
408.281	25.77
408.646	25.84
409.011	25.91
409.375	25.97
409.74	25.99
410.104	26.03
410.469	26.07
410.833	26.13
411.197	26.17
411.562	26.19
411.926	26.21
412.29	26.23
412.655	26.25
413.019	26.29
413.383	26.34
413.747	26.42
414.111	26.48
414.475	26.56
414.839	26.62
415.203	26.71
415.567	26.79
415.931	26.86
416.295	26.95
416.658	27
417.022	27.05
417.386	27.08
417.749	27.12
418.113	27.15
418.477	27.17
418.84	27.21
419.204	27.23
419.567	27.24
419.931	27.28
420.294	27.29
420.657	27.35
421.021	27.4
421.384	27.48
421.747	27.49
422.11	27.55
422.473	27.6
422.836	27.63
423.199	27.63
423.562	27.65
423.925	27.71
424.288	27.76
424.651	27.76
425.014	27.77
425.377	27.79
425.74	27.85
426.102	27.88
426.465	27.91
426.828	27.97
427.19	28.04
427.553	28.15
427.916	28.18
428.278	28.2
428.641	28.23
429.003	28.26
429.365	28.28
429.728	28.29
430.09	28.27
430.452	28.26
430.814	28.23
431.177	28.21
431.539	28.19
431.901	28.21
432.263	28.25
432.625	28.28
432.987	28.34
433.349	28.39
433.711	28.44
434.072	28.55
434.434	28.66
434.796	28.78
435.158	28.92
435.519	29
435.881	29.08
436.243	29.16
436.604	29.23
436.966	29.28
437.327	29.32
437.689	29.36
438.05	29.37
438.411	29.38
438.773	29.39
439.134	29.37
439.495	29.4
439.856	29.43
440.218	29.46
440.579	29.51
440.94	29.57
441.301	29.63
441.662	29.69
442.023	29.76
442.384	29.8
442.745	29.83
443.105	29.87
443.466	29.91
443.827	29.95
444.188	29.95
444.548	29.96
444.909	29.97
445.269	29.97
445.63	30.01
445.99	30.01
446.351	30.05
446.711	30.07
447.072	30.1
447.432	30.12
447.792	30.13
448.153	30.17
448.513	30.2
448.873	30.22
449.233	30.21
449.593	30.19
449.953	30.22
450.313	30.24
450.673	30.24
451.033	30.24
451.393	30.23
451.753	30.23
452.113	30.74
452.472	30.74
452.832	30.7
453.192	30.67
453.551	30.64
453.911	30.55
454.271	30.47
454.63	30.43
454.989	30.37
455.349	30.36
455.708	30.33
456.068	30.03
456.427	30.02
456.786	30.03
457.145	30.07
457.505	30.12
457.864	30.2
458.223	30.32
458.582	30.46
458.941	30.58
459.3	30.67
459.659	30.75
460.018	30.81
460.376	30.85
460.735	30.88
461.094	30.9
461.453	30.91
461.811	30.92
462.17	30.91
462.529	30.84
462.887	30.8
463.246	30.79
463.604	30.8
463.963	30.81
464.321	30.94
464.679	30.95
465.038	31
465.396	31.03
465.754	31.07
466.112	31.12
466.47	31.22
466.828	31.3
467.186	31.36
467.544	31.4
467.902	31.44
468.26	31.35
468.618	31.37
468.976	31.36
469.334	31.36
469.692	31.32
470.049	31.28
470.407	31.2
470.765	31.15
471.122	31.11
471.48	31.12
471.837	31.15
472.195	31.16
472.552	31.2
472.909	31.22
473.267	31.29
473.624	31.36
473.981	31.37
474.338	31.42
474.696	31.45
475.053	31.47
475.41	31.5
475.767	31.5
476.124	31.52
476.481	31.53
476.838	31.53
477.194	31.52
477.551	31.51
477.908	31.53
478.265	31.55
478.621	31.55
478.978	31.57
479.335	31.57
479.691	31.6
480.048	31.63
480.404	31.6
480.761	31.64
481.117	31.67
481.473	31.67
481.83	31.68
482.186	31.67
482.542	31.67
482.898	31.67
483.255	31.7
483.611	31.71
483.967	31.73
484.323	31.77
484.679	31.78
485.035	31.78
485.39	31.79
485.746	31.8
486.102	31.81
486.458	31.82
486.814	31.85
487.169	31.84
487.525	31.86
487.88	31.87
488.236	31.86
488.591	31.86
488.947	31.84
489.302	31.84
489.658	31.84
490.013	31.83
490.368	31.82
490.723	31.79
491.079	31.78
491.434	31.73
491.789	31.73
492.144	31.73
492.499	31.74
492.854	31.75
493.209	31.77
493.564	31.79
493.919	31.81
494.273	31.83
494.628	31.81
494.983	31.81
495.338	31.84
495.692	31.82
496.047	31.79
496.401	31.72
496.756	31.67
497.11	31.59
497.465	31.51
497.819	31.43
498.173	31.38
498.528	31.34
498.882	31.28
499.236	31.24
499.59	31.2
499.944	31.18
500.298	31.19
500.652	31.18
501.006	31.19
501.36	31.19
501.714	31.19
502.068	31.18
502.422	31.21
502.776	31.23
503.129	31.27
503.483	31.32
503.837	31.37
504.19	31.43
504.544	31.47
504.897	31.47
505.251	31.46
505.604	31.43
505.958	31.38
506.311	31.31
506.664	31.22
507.017	31.11
507.371	30.98
507.724	30.85
508.077	30.73
508.43	30.65
508.783	30.59
509.136	30.55
509.489	30.54
509.842	30.52
510.195	30.49
510.547	30.47
510.9	30.42
511.253	30.4
511.606	30.37
511.958	30.28
512.311	30.16
512.663	30.05
513.016	29.93
513.368	29.81
513.721	29.7
514.073	29.61
514.425	29.53
514.778	29.45
515.13	29.41
515.482	29.34
515.834	29.32
516.186	29.32
516.538	29.33
516.89	29.37
517.242	29.41
517.594	29.46
517.946	29.49
518.298	29.51
518.65	29.54
519.001	29.5
519.353	29.48
519.705	29.43
520.056	29.37
520.408	29.27
520.759	29.14
521.111	29.04
521.462	28.96
521.814	28.92
522.165	28.87
522.516	28.83
522.868	28.8
523.219	28.73
523.57	28.66
523.921	28.59
524.272	28.54
524.623	28.49
524.974	28.39
525.325	28.29
525.676	28.19
526.027	28.06
526.378	27.95
526.728	27.84
527.079	27.77
527.43	27.71
527.78	27.64
528.131	27.59
528.481	27.52
528.832	27.49
529.182	27.44
529.533	27.39
529.883	27.4
530.233	27.33
530.584	27.27
530.934	27.22
531.284	27.16
531.634	27.1
531.984	27.05
532.334	26.97
532.684	26.86
533.034	26.79
533.384	26.7
533.734	26.58
534.084	26.51
534.434	26.44
534.783	26.38
535.133	26.27
535.483	26.2
535.832	26.12
536.182	26.02
536.531	25.95
536.881	25.86
537.23	25.81
537.58	25.73
537.929	25.63
538.278	26.86
538.628	26.77
538.977	26.69
539.326	26.6
539.675	26.51
540.024	26.46
540.373	26.42
540.722	26.33
541.071	26.27
541.42	26.2
541.769	26.18
542.117	24.82
542.466	24.77
542.815	24.73
543.163	24.67
543.512	24.65
543.861	24.6
544.209	24.49
544.558	24.44
544.906	24.36
545.254	24.29
545.603	24.22
545.951	24.16
546.299	24.17
546.647	24.12
546.996	24.06
547.344	23.96
547.692	23.93
548.04	23.91
548.388	23.88
548.736	23.84
549.083	23.82
549.431	23.75
549.779	23.68
550.127	23.55
550.475	23.49
550.822	23.43
551.17	23.39
551.517	23.36
551.865	23.31
552.212	23.27
552.56	23.22
552.907	23.17
553.254	23.11
553.602	23.04
553.949	22.98
554.296	22.87
554.643	22.8
554.99	22.74
555.337	22.59
555.684	22.48
556.031	22.4
556.378	22.29
556.725	22.23
557.072	22.16
557.419	22.11
557.765	22.05
558.112	22.01
558.459	21.95
558.805	21.87
559.152	21.84
559.498	21.77
559.845	21.67
560.191	21.62
560.538	21.54
560.884	21.45
561.23	21.36
561.576	21.28
561.923	21.17
562.269	21.11
562.615	21.05
562.961	20.97
563.307	20.95
563.653	20.93
563.999	20.82
564.344	20.76
564.69	20.73
565.036	20.69
565.382	20.65
565.727	20.61
566.073	20.52
566.419	20.47
566.764	20.41
567.11	20.34
567.455	20.27
567.8	20.23
568.146	20.16
568.491	20.06
568.836	20.01
569.181	19.96
569.527	19.88
569.872	19.83
570.217	19.76
570.562	19.72
570.907	19.67
571.252	19.63
571.597	19.61
571.941	19.58
572.286	19.59
572.631	19.57
572.976	19.56
573.32	19.55
573.665	19.47
574.009	19.46
574.354	19.44
574.698	19.44
575.043	19.46
575.387	19.44
575.731	19.42
576.076	19.39
576.42	19.36
576.764	19.3
577.108	19.26
577.452	19.23
577.796	19.21
578.14	19.17
578.484	19.09
578.828	19.06
579.172	19.03
579.516	19.04
579.86	18.9
580.203	18.83
580.547	18.8
580.891	18.76
581.234	18.72
581.578	18.68
581.921	18.66
582.264	18.61
582.608	18.53
582.951	18.51
583.294	18.45
583.638	18.43
583.981	18.39
584.324	18.38
584.667	18.38
585.01	18.33
585.353	18.32
585.696	18.31
586.039	18.3
586.382	18.28
586.725	18.24
587.067	18.22
587.41	18.22
587.753	18.21
588.095	18.2
588.438	18.21
588.781	18.21
589.123	18.18
589.465	18.17
589.808	18.17
590.15	18.17
590.492	18.17
590.835	18.15
591.177	18.08
591.519	18.07
591.861	18.07
592.203	18.03
592.545	18.01
592.887	18
593.229	17.98
593.571	17.94
593.913	17.91
594.254	17.9
594.596	17.88
594.938	17.87
595.279	17.86
595.621	17.82
595.963	17.78
596.304	17.77
596.645	17.76
596.987	17.74
597.328	17.72
597.669	17.68
598.011	17.67
598.352	17.63
598.693	17.64
599.034	17.65
599.375	17.64
599.716	17.63
600.057	17.59
600.398	17.55
600.739	17.53
601.08	17.52
601.42	17.51
601.761	17.5
602.102	17.48
602.442	17.44
602.783	17.4
603.123	17.38
603.464	17.36
603.804	17.33
604.145	17.32
604.485	17.26
604.825	17.25
605.166	17.2
605.506	17.2
605.846	17.19
606.186	17.17
606.526	17.14
606.866	17.12
607.206	17.07
607.546	17.06
607.886	17.05
608.225	17.03
608.565	17
608.905	16.99
609.245	16.93
609.584	16.91
609.924	16.89
610.263	16.86
610.603	16.82
610.942	16.81
611.281	16.8
611.621	16.8
611.96	16.79
612.299	16.79
612.638	16.8
612.978	16.74
613.317	16.72
613.656	16.66
613.995	16.62
614.334	16.58
614.672	16.55
615.011	16.52
615.35	16.46
615.689	16.44
616.027	16.42
616.366	16.41
616.705	16.41
617.043	16.4
617.382	16.36
617.72	16.35
618.059	16.34
618.397	16.29
618.735	16.27
619.073	16.26
619.412	16.25
619.75	16.18
620.088	16.16
620.426	16.13
620.764	16.1
621.102	16.1
621.44	16.1
621.778	16.09
622.115	16.09
622.453	16.09
622.791	16.09
623.129	16.09
623.466	16.04
623.804	16
624.141	15.97
624.479	15.94
624.816	15.92
625.153	15.91
625.491	15.88
625.828	15.84
626.165	15.83
626.502	15.78
626.84	15.74
627.177	15.75
627.514	15.74
627.851	15.69
628.188	15.62
628.524	15.56
628.861	15.53
629.198	15.5
629.535	15.49
629.871	15.48
630.208	15.47
630.545	15.46
630.881	15.4
631.218	15.36
631.554	15.31
631.89	15.32
632.227	15.32
632.563	15.3
632.899	15.28
633.235	15.22
633.572	15.15
633.908	15.14
634.244	15.11
634.58	15.05
634.916	15.04
635.251	15.06
635.587	15.02
635.923	14.98
636.259	14.95
636.595	14.89
636.93	14.92
637.266	14.88
637.601	14.84
637.937	14.79
638.272	14.78
638.608	14.71
638.943	14.65
639.278	14.61
639.613	14.58
639.949	14.55
640.284	14.58
640.619	14.52
640.954	14.5
641.289	14.44
641.624	14.46
641.959	14.42
642.294	14.31
642.628	14.22
642.963	14.18
643.298	14.1
643.632	14.12
643.967	14.06
644.302	14.01
644.636	14
644.971	13.95
645.305	13.87
645.639	13.88
645.974	13.88
646.308	13.94
646.642	13.93
646.976	13.95
647.31	13.85
647.644	13.77
647.978	13.71
648.312	13.63
648.646	13.65
648.98	13.7
649.314	13.64
649.647	13.68
649.981	13.6
650.315	13.53
650.648	13.48
650.982	13.41
651.315	13.4
651.649	13.39
651.982	13.4
652.316	13.33
652.649	13.24
652.982	13.17
653.315	13.13
653.648	13.17
653.982	13.2
654.315	13.16
654.648	13.17
654.981	13.18
655.313	13.17
655.646	13.15
655.979	13.2
656.312	13.21
656.644	13.23
656.977	13.23
657.31	13.18
657.642	13.13
657.975	13.13
658.307	13.08
658.64	13.08
658.972	13.1
659.304	13.03
659.636	12.94
659.969	12.84
660.301	12.88
660.633	12.84
660.965	12.8
661.297	12.77
661.629	12.77
661.961	12.74
662.292	12.7
662.624	12.63
662.956	12.67
663.288	12.69
663.619	12.73
663.951	12.69
664.282	12.67
664.614	12.66
664.945	12.68
665.276	12.65
665.608	12.64
665.939	12.62
666.27	12.55
666.601	12.47
666.933	12.43
667.264	12.41
667.595	12.36
667.926	12.39
668.256	12.31
668.587	12.26
668.918	12.25
669.249	12.24
669.58	12.19
669.91	12.16
670.241	12.2
670.571	12.2
670.902	12.22
671.232	12.11
671.563	12.03
671.893	12.05
672.223	12.06
672.554	12.05
672.884	12.04
673.214	12.08
673.544	12.17
673.874	12.17
674.204	12.13
674.534	12.06
674.864	12.16
675.194	12.17
675.524	12.19
675.853	12.18
676.183	12.08
676.513	12.05
676.842	12
677.172	11.95
677.501	11.91
677.831	11.85
678.16	11.86
678.489	11.82
678.819	11.78
679.148	11.69
679.477	11.6
679.806	11.62
680.135	11.53
680.464	11.57
680.793	11.5
681.122	11.46
681.451	11.41
681.78	11.36
682.108	11.33
682.437	11.28
682.766	11.29
683.094	11.39
683.423	11.35
683.751	11.4
684.08	11.31
684.408	11.26
684.737	11.25
685.065	11.23
685.393	11.18
685.721	11.16
686.049	11.19
686.377	11.24
686.705	11.15
687.033	11.2
687.361	11.19
687.689	11.21
688.017	11.31
688.345	11.35
688.673	11.37
689.0	11.37
689.328	11.33
689.655	11.38
689.983	11.38
690.31	11.38
690.638	11.32
690.965	11.27
691.292	11.26
691.62	11.26
691.947	11.19
692.274	11.23
692.601	11.26
692.928	11.3
693.255	11.2
693.582	11.14
693.909	11.13
694.236	11.22
694.562	11.28
694.889	11.29
695.216	11.29
695.542	11.32
695.869	11.27
696.196	11.25
696.522	11.17
696.848	11.18
697.175	11.13
697.501	11.14
697.827	11.09
698.154	11.01
698.48	10.87
698.806	10.82
699.132	10.77
699.458	10.8
699.784	10.79
700.11	10.76
700.435	10.77
700.761	10.73
701.087	10.65
701.413	10.58
701.738	10.57
702.064	10.57
702.389	10.51
702.715	10.57
703.04	10.54
703.366	10.5
703.691	10.55
704.016	10.48
704.341	10.58
704.666	10.61
704.992	10.64
705.317	10.72
705.642	10.73
705.967	10.73
706.291	10.64
706.616	10.69
706.941	10.77
707.266	10.84
707.59	10.94
707.915	10.88
708.24	10.85
708.564	10.84
708.889	10.8
709.213	10.95
709.537	10.91
709.862	10.97
710.186	10.81
710.51	10.76
710.834	10.72
711.158	10.76
711.482	10.68
711.806	10.75
712.13	10.8
712.454	10.8
712.778	10.79
713.102	10.82
713.426	10.74
713.749	10.78
714.073	10.82
714.396	10.73
714.72	10.6
715.043	10.54
715.367	10.47
715.69	10.4
716.013	10.38
716.337	10.26
716.66	10.28
716.983	10.42
717.306	10.45
717.629	10.29
717.952	10.32
718.275	10.3
718.598	10.42
718.921	10.33
719.243	10.4
719.566	10.45
719.889	10.53
720.211	10.41
720.534	10.35
720.856	10.21
721.179	10.27
721.501	10.27
721.823	10.28
722.146	10.31
722.468	10.44
722.79	10.32
723.112	10.1
723.434	10.09
723.756	10.16
724.078	10.2
724.4	10.15
724.722	10.08
725.044	9.85
725.366	9.76
725.687	9.7
726.009	9.59
726.33	9.41
726.652	9.52
726.973	9.42
727.295	9.38
727.616	9.29
727.938	9.51
728.259	9.64
728.58	9.77
728.901	9.79
729.222	9.64
729.543	9.77
729.864	9.88
730.185	9.72
730.506	9.71
730.827	9.8
731.148	9.66
731.468	9.44
731.789	9.3
732.11	9.17
732.43	9.15
732.751	9.3
733.071	9.13
733.392	9.21
733.712	9.32
734.032	9.49
734.352	9.52
734.673	9.68
734.993	9.83
735.313	9.84
735.633	10.42
735.953	10.57
736.273	10.6
736.593	10.77
736.912	10.84
737.232	10.82
737.552	10.66
737.871	10.48
738.191	10.56
738.51	10.71
738.83	10.92
739.149	10.62
739.469	10.7
739.788	10.55
740.107	10.49
740.426	10.45
740.746	10.54
741.065	10.5
741.384	10.65
741.703	10.58
742.022	10.54
742.341	10.57
742.659	10.34
742.978	10.08
743.297	10.37
743.615	10.33
743.934	10.19
744.253	10.02
744.571	10.13
744.89	10.12
745.208	9.85
745.526	9.73
745.845	9.32
746.163	9.48
746.481	10.1
746.799	9.93
747.117	9.97
747.435	10.28
747.753	10.59
748.071	10.57
748.389	10.51
748.706	10.6
749.024	10.59
749.342	10.88
749.659	10.89
749.977	10.26
750.295	10.36
750.612	10.23
750.929	9.89
751.247	9.78
751.564	9.77
751.881	9.79
752.198	9.97
752.516	10.05
752.833	10.05
753.15	9.85
753.467	9.86
753.783	9.67
754.1	9.88
754.417	9.91
754.734	9.78
755.05	9.82
755.367	9.78
755.684	9.83
756.0	9.81
756.317	9.62
756.633	9.66
756.949	9.8
757.266	9.81
757.582	9.51
757.898	9.37
758.214	9.43
758.53	9.19
758.846	9.06
759.162	8.95
759.478	8.65
759.794	8.87
760.11	8.91
760.426	8.7
760.741	8.74
761.057	8.74
761.372	8.73
761.688	8.7
762.003	8.8
762.319	8.67
762.634	8.68
762.949	8.8
763.265	8.75
763.58	8.65
763.895	8.61
764.21	8.51
764.525	8.34
764.84	8.46
765.155	8.52
765.47	8.64
765.785	8.67
766.099	8.69
766.414	8.65
766.729	8.35
767.043	8.48
767.358	8.61
767.672	8.56
767.987	8.85
768.301	9.1
768.615	9.13
768.929	9.03
769.244	9.57
769.558	9.97
769.872	9.91
770.186	9.92
770.5	9.69
770.814	9.67
771.127	10.25
771.441	10.31
771.755	10.12
772.069	10.05
772.382	10
772.696	9.59
773.009	9.16
773.323	9.46
773.636	9.83
773.95	10.27
774.263	10.59
774.576	10.03
774.889	10.31
775.202	10.38
775.515	10.59
775.828	10.4
776.141	10.65
776.454	10.29
776.767	10.18
777.08	9.92
777.393	9.55
777.705	9.35
778.018	9.48
778.33	9.18
778.643	9.29
778.955	8.76
779.268	9
779.58	8.83
779.892	9.2
780.205	9.25
780.517	9.28
780.829	9.68
781.141	9.8
781.453	9.65
781.765	9.89
782.077	9.57
782.388	10.03
782.7	9.73
783.012	9.86
783.324	9.86
783.635	9.92
783.947	10.23
784.258	9.55
784.57	9.58
784.881	9.88
785.192	9.2
785.504	9.4
785.815	9.18
786.126	9.43
786.437	9.62
786.748	9.52
787.059	9.44
787.37	9.24
787.681	9.74
787.992	9.98
788.302	10
788.613	10.38
788.924	10.47
789.234	11.06
789.545	11.29
789.855	10.9
790.166	10.38
790.476	10.62
790.786	10.63
791.096	10.89
791.407	10.62
791.717	10.17
792.027	10.01
792.337	9.57
792.647	9.17
792.957	9.57
793.266	9.86
793.576	10.22
793.886	9.59
794.196	9.33
794.505	13.5
794.815	13.87
795.124	14.35
795.434	14.7
795.743	14.43
796.052	14.46
796.362	13.77
796.671	13.22
796.98	13.65
797.289	13.6
797.598	13.87
797.907	9.26
798.216	9.02
798.525	9.11
798.834	9.2
799.142	9.99
799.451	10.04
799.76	10.37
800.068	10.9
800.377	10.71
800.685	11.76
800.994	11.72
801.302	11.81
801.61	11.31
801.918	10.7
802.227	10.26
802.535	10.05
802.843	9.69
803.151	9.47
803.459	9.11
803.767	9.23
804.074	8.65
804.382	9.01
804.69	10.41
804.998	10.51
805.305	10.48
805.613	10.41
805.92	10.7
806.228	10.62
806.535	10.28
806.842	10.34
807.15	10.27
807.457	10.15
807.764	10.17
808.071	9.2
808.378	9.3
808.685	9.96
808.992	10.04
809.299	10.02
809.605	10.61
809.912	11.23
810.219	11.14
810.525	11.38
810.832	11.46
811.138	10.92
811.445	10.51
811.751	10.15
812.058	9.8
812.364	10.36
812.67	9.72
812.976	8.57
813.282	7.9
813.588	7.58
813.894	7.04
814.2	6.83
814.506	7.27
814.812	6.9
815.118	7.42
815.423	7.27
815.729	7.26
816.035	7.26
816.34	7.99
816.646	9.07
816.951	9.56
817.256	9.29
817.562	9.93
817.867	9.6
818.172	10.19
818.477	10.04
818.782	9.79
819.087	9.75
819.392	9.84
819.697	9.43
820.002	8.3
820.306	7.86
820.611	7.97
820.916	7.32
821.22	7.4
821.525	7.03
821.829	7.07
822.134	7.17
822.438	7.01
822.742	7.07
823.047	7.11
823.351	7.18
823.655	7.38
823.959	7.37
824.263	7.42
824.567	7.55
824.871	7.66
825.174	7.81
825.478	9.48
825.782	9.79
826.086	9.97
826.389	10.36
826.693	10.5
826.996	10.55
827.3	10.68
827.603	10.76
827.906	10.69
828.209	11.03
828.513	11.12
828.816	9.11
829.119	8.91
829.422	9.01
829.725	8.63
830.028	8.58
830.33	8.29
830.633	8.48
830.936	8.44
831.238	8.14
831.541	7.57
831.844	7.39
832.146	7.35
832.448	7.57
832.751	7.12
833.053	7.75
833.355	8.23
833.657	8.52
833.96	8.46
834.262	8.68
834.564	9.19
834.865	9.16
835.167	10.74
835.469	10.84
835.771	9.98
836.073	9.84
836.374	9.32
836.676	8.94
836.977	8.7
837.279	8.75
837.58	8.99
837.882	9.12
838.183	9.34
838.484	7.38
838.785	7.25
839.086	8.21
839.387	8.67
839.688	9.08
839.989	9.42
840.29	10.39
840.591	10.69
840.892	10.54
841.192	11.37
841.493	11.56
841.794	12.57
842.094	13.18
842.394	14.01
842.695	16.26
842.995	16.37
843.295	16.98
843.596	17.17
843.896	16.87
844.196	17.09
844.496	15.28
844.796	15.99
845.096	16.02
845.396	14.66
845.695	13.88
845.995	13.33
846.295	14.09
846.594	14.51
846.894	13.76
847.194	13.41
847.493	14.19
847.792	14.68
848.092	12.61
848.391	11.21
848.69	13.39
848.989	13.08
849.288	10.97
849.587	10.25
849.886	9.04
850.185	10.32
850.484	10.94
850.783	10.28
851.081	11.02
851.38	12.73
851.679	13.47
851.977	13.18
852.276	13.59
852.574	14.85
852.872	13.93
853.171	13.77
853.469	12.23
853.767	11.52
854.065	11.16
854.363	10.15
854.661	11.3
854.959	10.74
855.257	8.59
855.555	6.05
855.853	5.98
856.15	7.56
856.448	9.15
856.746	12.18
857.043	12.24
857.341	14.75
857.638	22.56
857.935	20.47
858.233	21.34
858.53	24.05
858.827	26.67
859.124	24.73
859.421	25.38
859.718	25.56
860.015	22.94
860.312	22.8
860.609	19.65
860.905	12.89
861.202	12.4
861.499	12.04
861.795	12.36
862.092	10.51
862.388	8.54
862.684	6.74
862.981	5.13
863.277	3.21
863.573	4.53
863.869	7.21
864.165	6.16
864.461	7.32
864.757	7.37
865.053	7.3
865.349	8.92
865.645	11.25
865.94	10.67
866.236	8.44
866.532	11.09
866.827	10.58
867.123	9.71
867.418	10.75
867.713	10.39
868.009	9.69
868.304	9.21
868.599	7.39
868.894	8.87
869.189	10.77
869.484	16.26
869.779	16.19
870.074	18.23
870.369	19.66
870.663	20.2
870.958	20.16
871.252	20.9
871.547	18.8
871.842	21.48
872.136	18.94
872.43	18.32
872.725	15.51
873.019	14.8
873.313	13.3
873.607	10.62
873.901	9.02
874.195	10.28
874.489	10.5
874.783	9.29
875.077	9.91
875.37	13.13
875.664	13.72
875.958	14.67
876.251	15.3
876.545	15
876.838	14.98
877.132	18.24
877.425	18.2
877.718	16.76
878.011	17.9
878.305	16.17
878.598	13.32
878.891	11.7
879.184	11.58
879.476	12.26
879.769	10.88
880.062	8.74
880.355	4.42
880.647	5.88
880.94	5.07
881.232	4.76
881.525	4.68
881.817	4.51
882.11	3.99
882.402	2.82
882.694	1.36
882.986	2.75
883.278	4.74
883.57	6.14
883.862	5.54
884.154	6.51
884.446	7.01
884.738	7.11
885.03	7.47
885.321	7.97
885.613	8.75
885.904	9.48
886.196	9.06
886.487	9.09
886.779	8.59
887.07	8.67
887.361	8.4
887.652	8.83
887.943	8.72
888.234	9.4
888.525	9.1
888.816	8.03
889.107	8.36
889.398	9.11
889.689	8.69
889.979	8.92
890.27	10.72
890.56	11.39
890.851	11.13
891.141	12.08
891.432	10.72
891.722	12.12
