Data from thigh1_Reflection__1__12-21-43-599.txt Node

Date: Thu Aug 04 12:21:43 AEST 2022
User: kathy
Spectrometer: JAZA2503
Trigger mode: 0
Integration Time (sec): 2.883200E-1
Scans to average: 10
Electric dark correction enabled: true
Nonlinearity correction enabled: true
Boxcar width: 5
XAxis mode: Wavelengths
Number of Pixels in Spectrum: 2048
>>>>>Begin Spectral Data<<<<<
189.467	-155.42
189.852	-326.04
190.237	-8686.11
190.622	-564.85
191.007	-232.35
191.392	-349.1
191.777	-610.73
192.162	101.01
192.546	-40.55
192.931	-228.53
193.316	-164.88
193.701	-276.51
194.086	202.06
194.47	178.08
194.855	412.09
195.24	12958.19
195.624	605.95
196.009	-476.75
196.393	-259.16
196.778	1459.46
197.163	173.65
197.547	96.24
197.931	73.29
198.316	63.99
198.7	55.72
199.085	41.05
199.469	30.73
199.853	28.69
200.237	30.72
200.622	28.19
201.006	24.08
201.39	20.09
201.774	13.85
202.158	11.97
202.542	8.42
202.926	-0.7
203.31	-4.65
203.694	-5.58
204.078	-11.29
204.462	-7.21
204.846	-10.94
205.23	-8.75
205.614	-4.16
205.998	-4.28
206.381	6.13
206.765	1.43
207.149	2.64
207.532	13.51
207.916	13.06
208.3	17.11
208.683	15.38
209.067	17.25
209.45	16.52
209.834	17.66
210.217	20.24
210.601	16.16
210.984	19.86
211.367	24.86
211.751	20.61
212.134	23.57
212.517	18.82
212.901	20.28
213.284	20.3
213.667	23.75
214.05	21.22
214.433	19.91
214.816	20.37
215.199	19.55
215.582	16.62
215.965	14.22
216.348	10.07
216.731	14.79
217.114	13.11
217.497	9.66
217.88	5.49
218.262	7.81
218.645	7.47
219.028	5.95
219.411	5.36
219.793	5.81
220.176	5.23
220.559	6.98
220.941	6.17
221.324	3.27
221.706	3.52
222.089	3.13
222.471	4.16
222.853	3.11
223.236	4.71
223.618	2.85
224	2.88
224.383	1.87
224.765	2.7
225.147	2.2
225.529	3.65
225.912	2.96
226.294	2.35
226.676	1.29
227.058	1.05
227.44	0.29
227.822	0.41
228.204	0.59
228.586	0.98
228.968	0.59
229.349	0.89
229.731	1.14
230.113	1.03
230.495	1.37
230.877	1.45
231.258	1.54
231.64	1.54
232.022	1.53
232.403	1.34
232.785	1.4
233.166	1.21
233.548	0.98
233.929	0.54
234.311	0.83
234.692	0.22
235.073	0.18
235.455	0.36
235.836	0.48
236.217	0.67
236.599	0.58
236.98	0.19
237.361	0.1
237.742	-0.09
238.123	0.25
238.504	0.36
238.885	0.55
239.266	0.51
239.647	0.36
240.028	0.58
240.409	0.43
240.79	0.55
241.171	0.78
241.552	0.96
241.933	0.97
242.313	0.83
242.694	0.8
243.075	0.97
243.456	0.93
243.836	1.15
244.217	0.99
244.597	1.1
244.978	1.16
245.358	1.14
245.739	1.05
246.119	0.94
246.5	1.01
246.88	0.91
247.26	0.76
247.641	0.68
248.021	0.55
248.401	0.56
248.781	0.57
249.162	0.53
249.542	0.56
249.922	0.58
250.302	0.64
250.682	0.56
251.062	0.55
251.442	0.54
251.822	0.62
252.202	0.6
252.582	0.56
252.961	0.53
253.341	0.52
253.721	0.42
254.101	0.35
254.48	0.4
254.86	0.25
255.24	0.44
255.619	0.65
255.999	0.51
256.378	0.53
256.758	0.54
257.137	0.45
257.517	0.44
257.896	0.53
258.276	0.55
258.655	0.52
259.034	0.46
259.414	0.36
259.793	0.3
260.172	0.36
260.551	0.37
260.93	0.38
261.309	0.34
261.688	0.36
262.068	0.4
262.447	0.45
262.825	0.43
263.204	0.47
263.583	0.51
263.962	0.61
264.341	0.64
264.72	0.63
265.099	0.64
265.477	0.72
265.856	0.63
266.235	0.53
266.613	0.39
266.992	0.36
267.371	0.42
267.749	0.48
268.128	0.4
268.506	0.38
268.884	0.41
269.263	0.38
269.641	0.38
270.02	0.38
270.398	0.34
270.776	0.43
271.154	0.47
271.533	0.46
271.911	0.42
272.289	0.37
272.667	0.38
273.045	0.36
273.423	0.39
273.801	0.37
274.179	0.33
274.557	0.31
274.935	0.34
275.313	0.27
275.69	0.26
276.068	0.22
276.446	0.23
276.824	0.24
277.201	0.25
277.579	0.27
277.957	0.29
278.334	0.3
278.712	0.35
279.089	0.32
279.467	0.45
279.844	0.47
280.222	0.47
280.599	0.51
280.976	0.44
281.354	0.36
281.731	0.35
282.108	0.38
282.485	0.4
282.863	0.44
283.24	0.41
283.617	0.37
283.994	0.34
284.371	0.37
284.748	0.37
285.125	0.43
285.502	0.47
285.879	0.49
286.256	0.5
286.633	0.57
287.009	0.59
287.386	0.59
287.763	0.62
288.139	0.65
288.516	0.64
288.893	0.63
289.269	0.61
289.646	0.67
290.022	0.64
290.399	0.58
290.775	0.55
291.152	0.5
291.528	0.51
291.904	0.5
292.281	0.47
292.657	0.47
293.033	0.52
293.41	0.54
293.786	0.5
294.162	0.51
294.538	0.57
294.914	0.59
295.29	0.61
295.666	0.65
296.042	0.65
296.418	0.69
296.794	0.72
297.17	0.7
297.546	0.74
297.921	0.76
298.297	0.79
298.673	0.83
299.048	0.84
299.424	0.86
299.8	0.89
300.175	0.95
300.551	0.98
300.926	1.03
301.302	1.05
301.677	1.07
302.053	1.13
302.428	1.12
302.803	1.13
303.179	1.17
303.554	1.21
303.929	1.25
304.304	1.23
304.68	1.24
305.055	1.27
305.43	1.28
305.805	1.27
306.18	1.29
306.555	1.34
306.93	1.35
307.305	1.36
307.679	1.35
308.054	1.32
308.429	1.31
308.804	1.32
309.179	1.3
309.553	1.29
309.928	1.33
310.303	1.34
310.677	1.37
311.052	1.39
311.426	1.36
311.801	1.38
312.175	1.4
312.55	1.43
312.924	1.43
313.298	1.47
313.673	1.52
314.047	1.51
314.421	1.48
314.795	1.47
315.17	1.49
315.544	1.55
315.918	1.58
316.292	1.61
316.666	1.67
317.04	1.72
317.414	1.77
317.788	1.8
318.162	1.83
318.535	1.91
318.909	1.96
319.283	1.97
319.657	1.99
320.03	2.04
320.404	2.13
320.778	2.23
321.151	2.36
321.525	2.48
321.898	2.62
322.272	2.76
322.645	2.84
323.019	2.94
323.392	3.05
323.765	3.26
324.139	3.36
324.512	3.5
324.885	3.7
325.258	3.84
325.632	3.96
326.005	4.07
326.378	4.15
326.751	4.22
327.124	4.22
327.497	4.22
327.87	4.14
328.243	4.16
328.616	4.2
328.988	4.27
329.361	4.24
329.734	4.24
330.107	4.23
330.479	4.2
330.852	4.13
331.225	4.13
331.597	4.15
331.97	4.17
332.342	4.08
332.715	4.06
333.087	3.96
333.46	3.84
333.832	3.79
334.204	3.79
334.577	3.77
334.949	3.78
335.321	3.79
335.693	3.82
336.065	3.79
336.438	3.73
336.81	3.71
337.182	3.69
337.554	3.61
337.926	3.53
338.298	3.45
338.669	3.37
339.041	3.34
339.413	3.29
339.785	3.24
340.157	3.19
340.528	3.13
340.9	3.08
341.272	3.02
341.643	2.98
342.015	3.01
342.386	3.06
342.758	3.11
343.129	3.15
343.501	3.22
343.872	3.24
344.243	3.25
344.615	3.23
344.986	3.25
345.357	3.21
345.728	3.23
346.099	3.22
346.471	3.2
346.842	3.16
347.213	3.16
347.584	3.14
347.955	3.1
348.326	3.03
348.697	2.99
349.067	2.96
349.438	2.93
349.809	2.95
350.18	3.04
350.55	3.05
350.921	3.07
351.292	3.11
351.662	3.12
352.033	3.12
352.403	3.12
352.774	3.14
353.144	3.14
353.515	3.13
353.885	3.08
354.255	3
354.626	3
354.996	3
355.366	2.97
355.736	2.96
356.107	2.94
356.477	2.94
356.847	2.93
357.217	2.94
357.587	2.93
357.957	2.96
358.327	2.99
358.697	3.01
359.066	3.01
359.436	3.01
359.806	3.01
360.176	3.03
360.546	3.04
360.915	3.04
361.285	3.03
361.654	3.04
362.024	3.03
362.393	3.04
362.763	3.02
363.132	3.01
363.502	3.01
363.871	3
364.24	3
364.61	3.02
364.979	3.02
365.348	3.01
365.717	3.01
366.087	3.01
366.456	3.01
366.825	3.04
367.194	3.07
367.563	3.09
367.932	3.1
368.301	3.13
368.669	3.13
369.038	3.14
369.407	3.16
369.776	3.19
370.145	3.23
370.513	3.26
370.882	3.25
371.25	3.27
371.619	3.29
371.988	3.33
372.356	3.34
372.724	3.36
373.093	3.4
373.461	3.42
373.83	3.42
374.198	3.43
374.566	3.43
374.934	3.43
375.303	3.43
375.671	3.42
376.039	3.42
376.407	3.44
376.775	3.45
377.143	3.46
377.511	3.46
377.879	3.47
378.247	3.49
378.615	3.49
378.982	3.54
379.35	3.58
379.718	3.6
380.086	3.61
380.453	3.61
380.821	3.63
381.188	3.62
381.556	3.65
381.923	3.65
382.291	3.65
382.658	3.67
383.026	3.67
383.393	3.67
383.76	3.68
384.128	3.69
384.495	3.7
384.862	3.71
385.229	3.74
385.596	3.75
385.963	3.78
386.33	3.79
386.697	3.79
387.064	3.8
387.431	3.81
387.798	3.8
388.165	3.81
388.532	3.81
388.899	3.79
389.265	3.78
389.632	3.77
389.999	3.75
390.365	3.74
390.732	3.73
391.098	3.71
391.465	3.72
391.831	3.71
392.198	3.71
392.564	3.7
392.93	3.71
393.297	3.68
393.663	3.67
394.029	3.68
394.395	3.68
394.762	3.69
395.128	3.7
395.494	3.69
395.86	3.72
396.226	3.72
396.592	3.72
396.958	3.74
397.323	3.77
397.689	3.8
398.055	3.81
398.421	3.82
398.787	3.84
399.152	3.85
399.518	3.85
399.883	3.87
400.249	3.89
400.615	3.91
400.98	3.91
401.345	3.94
401.711	3.95
402.076	3.95
402.442	3.96
402.807	3.94
403.172	3.95
403.537	3.97
403.902	3.97
404.268	3.98
404.633	3.97
404.998	3.98
405.363	3.96
405.728	3.96
406.093	3.96
406.457	3.97
406.822	4.01
407.187	4.02
407.552	4.02
407.917	4.03
408.281	4.04
408.646	4.06
409.011	4.07
409.375	4.08
409.74	4.1
410.104	4.11
410.469	4.11
410.833	4.11
411.197	4.1
411.562	4.1
411.926	4.1
412.29	4.09
412.655	4.08
413.019	4.07
413.383	4.07
413.747	4.09
414.111	4.09
414.475	4.1
414.839	4.11
415.203	4.12
415.567	4.12
415.931	4.15
416.295	4.17
416.658	4.17
417.022	4.16
417.386	4.17
417.749	4.17
418.113	4.18
418.477	4.18
418.84	4.17
419.204	4.19
419.567	4.19
419.931	4.18
420.294	4.17
420.657	4.21
421.021	4.24
421.384	4.25
421.747	4.27
422.11	4.28
422.473	4.29
422.836	4.32
423.199	4.32
423.562	4.34
423.925	4.37
424.288	4.36
424.651	4.37
425.014	4.38
425.377	4.39
425.74	4.37
426.102	4.38
426.465	4.42
426.828	4.44
427.19	4.46
427.553	4.48
427.916	4.48
428.278	4.5
428.641	4.49
429.003	4.48
429.365	4.47
429.728	4.47
430.09	4.45
430.452	4.44
430.814	4.41
431.177	4.4
431.539	4.38
431.901	4.4
432.263	4.41
432.625	4.44
432.987	4.47
433.349	4.49
433.711	4.53
434.072	4.56
434.434	4.57
434.796	4.6
435.158	4.65
435.519	4.68
435.881	4.7
436.243	4.72
436.604	4.7
436.966	4.71
437.327	4.73
437.689	4.73
438.05	4.74
438.411	4.76
438.773	4.79
439.134	4.81
439.495	4.83
439.856	4.83
440.218	4.86
440.579	4.89
440.94	4.91
441.301	4.93
441.662	4.96
442.023	5
442.384	5.01
442.745	5.03
443.105	5.03
443.466	5.04
443.827	5.04
444.188	5.04
444.548	5.07
444.909	5.09
445.269	5.1
445.63	5.11
445.99	5.11
446.351	5.13
446.711	5.13
447.072	5.14
447.432	5.16
447.792	5.2
448.153	5.21
448.513	5.2
448.873	5.21
449.233	5.21
449.593	5.19
449.953	5.18
450.313	5.18
450.673	5.18
451.033	5.18
451.393	5.16
451.753	5.11
452.113	5.59
452.472	5.56
452.832	5.49
453.192	5.4
453.551	5.33
453.911	5.24
454.271	5.13
454.63	5.03
454.989	4.94
455.349	4.88
455.708	4.82
456.068	4.53
456.427	4.5
456.786	4.49
457.145	4.49
457.505	4.48
457.864	4.49
458.223	4.51
458.582	4.54
458.941	4.58
459.3	4.6
459.659	4.64
460.018	4.66
460.376	4.69
460.735	4.71
461.094	4.73
461.453	4.76
461.811	4.77
462.17	4.78
462.529	4.79
462.887	4.79
463.246	4.81
463.604	4.83
463.963	4.85
464.321	4.79
464.679	4.81
465.038	4.83
465.396	4.87
465.754	4.91
466.112	4.96
466.47	5.02
466.828	5.08
467.186	5.12
467.544	5.16
467.902	5.18
468.26	5.33
468.618	5.37
468.976	5.39
469.334	5.42
469.692	5.44
470.049	5.46
470.407	5.48
470.765	5.48
471.122	5.5
471.48	5.52
471.837	5.55
472.195	5.57
472.552	5.61
472.909	5.64
473.267	5.67
473.624	5.69
473.981	5.72
474.338	5.72
474.696	5.75
475.053	5.76
475.41	5.77
475.767	5.78
476.124	5.79
476.481	5.8
476.838	5.82
477.194	5.83
477.551	5.84
477.908	5.85
478.265	5.87
478.621	5.87
478.978	5.89
479.335	5.91
479.691	5.95
480.048	5.96
480.404	5.95
480.761	5.94
481.117	5.93
481.473	5.92
481.83	5.92
482.186	5.91
482.542	5.92
482.898	5.92
483.255	5.9
483.611	5.89
483.967	5.89
484.323	5.9
484.679	5.9
485.035	5.92
485.39	5.93
485.746	5.93
486.102	5.93
486.458	5.94
486.814	5.94
487.169	5.95
487.525	5.93
487.88	5.92
488.236	5.89
488.591	5.86
488.947	5.82
489.302	5.78
489.658	5.75
490.013	5.74
490.368	5.73
490.723	5.7
491.079	5.7
491.434	5.7
491.789	5.7
492.144	5.73
492.499	5.75
492.854	5.76
493.209	5.79
493.564	5.81
493.919	5.83
494.273	5.85
494.628	5.87
494.983	5.87
495.338	5.87
495.692	5.88
496.047	5.85
496.401	5.83
496.756	5.81
497.11	5.76
497.465	5.72
497.819	5.66
498.173	5.6
498.528	5.55
498.882	5.49
499.236	5.43
499.59	5.36
499.944	5.32
500.298	5.28
500.652	5.25
501.006	5.24
501.36	5.23
501.714	5.22
502.068	5.22
502.422	5.23
502.776	5.25
503.129	5.27
503.483	5.29
503.837	5.32
504.19	5.35
504.544	5.37
504.897	5.38
505.251	5.39
505.604	5.39
505.958	5.39
506.311	5.39
506.664	5.39
507.017	5.39
507.371	5.4
507.724	5.4
508.077	5.39
508.43	5.4
508.783	5.42
509.136	5.43
509.489	5.45
509.842	5.46
510.195	5.47
510.547	5.47
510.9	5.46
511.253	5.45
511.606	5.43
511.958	5.4
512.311	5.36
512.663	5.3
513.016	5.25
513.368	5.21
513.721	5.17
514.073	5.14
514.425	5.11
514.778	5.1
515.13	5.09
515.482	5.09
515.834	5.1
516.186	5.13
516.538	5.15
516.89	5.2
517.242	5.24
517.594	5.27
517.946	5.31
518.298	5.35
518.65	5.39
519.001	5.43
519.353	5.46
519.705	5.5
520.056	5.51
520.408	5.54
520.759	5.57
521.111	5.58
521.462	5.63
521.814	5.66
522.165	5.69
522.516	5.7
522.868	5.74
523.219	5.76
523.57	5.76
523.921	5.79
524.272	5.81
524.623	5.8
524.974	5.8
525.325	5.79
525.676	5.79
526.027	5.79
526.378	5.79
526.728	5.79
527.079	5.79
527.43	5.8
527.78	5.8
528.131	5.8
528.481	5.8
528.832	5.82
529.182	5.82
529.533	5.82
529.883	5.85
530.233	5.84
530.584	5.83
530.934	5.85
531.284	5.85
531.634	5.84
531.984	5.83
532.334	5.85
532.684	5.83
533.034	5.83
533.384	5.82
533.734	5.81
534.084	5.82
534.434	5.81
534.783	5.8
535.133	5.78
535.483	5.76
535.832	5.75
536.182	5.71
536.531	5.71
536.881	5.68
537.23	5.66
537.58	5.58
537.929	5.54
538.278	6.85
538.628	6.84
538.977	6.81
539.326	6.77
539.675	6.71
540.024	6.68
540.373	6.64
540.722	6.63
541.071	6.61
541.42	6.61
541.769	6.6
542.117	5.26
542.466	5.18
542.815	5.15
543.163	5.13
543.512	5.14
543.861	5.13
544.209	5.12
544.558	5.1
544.906	5.08
545.254	5.05
545.603	5.04
545.951	5.04
546.299	5.12
546.647	5.17
546.996	5.19
547.344	5.17
547.692	5.17
548.04	5.16
548.388	5.17
548.736	5.19
549.083	5.2
549.431	5.2
549.779	5.18
550.127	5.14
550.475	5.08
550.822	5.08
551.17	5.08
551.517	5.11
551.865	5.16
552.212	5.17
552.56	5.21
552.907	5.24
553.254	5.28
553.602	5.31
553.949	5.33
554.296	5.35
554.643	5.38
554.99	5.4
555.337	5.4
555.684	5.36
556.031	5.38
556.378	5.37
556.725	5.36
557.072	5.38
557.419	5.41
557.765	5.41
558.112	5.42
558.459	5.43
558.805	5.44
559.152	5.43
559.498	5.42
559.845	5.37
560.191	5.32
560.538	5.27
560.884	5.22
561.23	5.14
561.576	5.08
561.923	5.01
562.269	4.95
562.615	4.9
562.961	4.87
563.307	4.89
563.653	4.9
563.999	4.88
564.344	4.88
564.69	4.88
565.036	4.91
565.382	4.94
565.727	4.96
566.073	4.97
566.419	4.96
566.764	4.96
567.11	4.92
567.455	4.9
567.8	4.89
568.146	4.86
568.491	4.81
568.836	4.75
569.181	4.73
569.527	4.72
569.872	4.69
570.217	4.66
570.562	4.64
570.907	4.64
571.252	4.65
571.597	4.65
571.941	4.68
572.286	4.72
572.631	4.74
572.976	4.75
573.32	4.75
573.665	4.73
574.009	4.75
574.354	4.75
574.698	4.75
575.043	4.78
575.387	4.79
575.731	4.8
576.076	4.82
576.42	4.82
576.764	4.82
577.108	4.81
577.452	4.8
577.796	4.79
578.14	4.77
578.484	4.76
578.828	4.74
579.172	4.74
579.516	4.73
579.86	4.7
580.203	4.69
580.547	4.67
580.891	4.67
581.234	4.66
581.578	4.63
581.921	4.63
582.264	4.61
582.608	4.61
582.951	4.6
583.294	4.6
583.638	4.6
583.981	4.58
584.324	4.58
584.667	4.57
585.01	4.57
585.353	4.59
585.696	4.59
586.039	4.61
586.382	4.62
586.725	4.62
587.067	4.62
587.41	4.63
587.753	4.65
588.095	4.65
588.438	4.64
588.781	4.63
589.123	4.63
589.465	4.63
589.808	4.62
590.15	4.61
590.492	4.6
590.835	4.58
591.177	4.58
591.519	4.56
591.861	4.55
592.203	4.54
592.545	4.53
592.887	4.52
593.229	4.5
593.571	4.47
593.913	4.46
594.254	4.44
594.596	4.43
594.938	4.43
595.279	4.45
595.621	4.46
595.963	4.49
596.304	4.5
596.645	4.51
596.987	4.53
597.328	4.54
597.669	4.55
598.011	4.56
598.352	4.61
598.693	4.62
599.034	4.63
599.375	4.63
599.716	4.69
600.057	4.69
600.398	4.7
600.739	4.73
601.08	4.75
601.42	4.77
601.761	4.79
602.102	4.79
602.442	4.8
602.783	4.79
603.123	4.78
603.464	4.78
603.804	4.79
604.145	4.79
604.485	4.78
604.825	4.77
605.166	4.77
605.506	4.77
605.846	4.77
606.186	4.79
606.526	4.81
606.866	4.82
607.206	4.82
607.546	4.82
607.886	4.83
608.225	4.83
608.565	4.84
608.905	4.83
609.245	4.83
609.584	4.83
609.924	4.83
610.263	4.86
610.603	4.88
610.942	4.88
611.281	4.88
611.621	4.88
611.96	4.89
612.299	4.89
612.638	4.93
612.978	4.93
613.317	4.93
613.656	4.92
613.995	4.89
614.334	4.87
614.672	4.86
615.011	4.86
615.35	4.86
615.689	4.87
616.027	4.88
616.366	4.87
616.705	4.87
617.043	4.88
617.382	4.88
617.72	4.86
618.059	4.84
618.397	4.83
618.735	4.83
619.073	4.83
619.412	4.84
619.75	4.82
620.088	4.8
620.426	4.78
620.764	4.78
621.102	4.79
621.44	4.79
621.778	4.81
622.115	4.83
622.453	4.83
622.791	4.82
623.129	4.82
623.466	4.82
623.804	4.8
624.141	4.79
624.479	4.76
624.816	4.73
625.153	4.71
625.491	4.69
625.828	4.68
626.165	4.66
626.502	4.63
626.84	4.58
627.177	4.56
627.514	4.53
627.851	4.49
628.188	4.42
628.524	4.38
628.861	4.34
629.198	4.33
629.535	4.34
629.871	4.33
630.208	4.31
630.545	4.36
630.881	4.39
631.218	4.42
631.554	4.47
631.89	4.52
632.227	4.58
632.563	4.6
632.899	4.64
633.235	4.66
633.572	4.66
633.908	4.72
634.244	4.71
634.58	4.66
634.916	4.67
635.251	4.65
635.587	4.62
635.923	4.63
636.259	4.68
636.595	4.71
636.93	4.74
637.266	4.8
637.601	4.8
637.937	4.81
638.272	4.9
638.608	4.9
638.943	4.93
639.278	4.96
639.613	4.9
639.949	4.85
640.284	4.84
640.619	4.86
640.954	4.8
641.289	4.8
641.624	4.81
641.959	4.75
642.294	4.76
642.628	4.76
642.963	4.76
643.298	4.82
643.632	4.96
643.967	5.01
644.302	4.98
644.636	5.06
644.971	5.05
645.305	4.98
645.639	5.02
645.974	4.96
646.308	4.89
646.642	4.84
646.976	4.81
647.31	4.67
647.644	4.54
647.978	4.5
648.312	4.41
648.646	4.43
648.98	4.47
649.314	4.44
649.647	4.46
649.981	4.47
650.315	4.45
650.648	4.4
650.982	4.41
651.315	4.49
651.649	4.46
651.982	4.46
652.316	4.41
652.649	4.37
652.982	4.37
653.315	4.38
653.648	4.44
653.982	4.48
654.315	4.45
654.648	4.39
654.981	4.37
655.313	4.41
655.646	4.46
655.979	4.5
656.312	4.48
656.644	4.44
656.977	4.38
657.31	4.3
657.642	4.21
657.975	4.23
658.307	4.23
658.64	4.21
658.972	4.2
659.304	4.13
659.636	4.11
659.969	4.1
660.301	4.14
660.633	4.16
660.965	4.21
661.297	4.27
661.629	4.3
661.961	4.32
662.292	4.32
662.624	4.35
662.956	4.42
663.288	4.47
663.619	4.52
663.951	4.48
664.282	4.45
664.614	4.4
664.945	4.45
665.276	4.42
665.608	4.39
665.939	4.37
666.27	4.3
666.601	4.24
666.933	4.23
667.264	4.25
667.595	4.3
667.926	4.36
668.256	4.38
668.587	4.31
668.918	4.38
669.249	4.44
669.58	4.43
669.91	4.43
670.241	4.48
670.571	4.43
670.902	4.43
671.232	4.34
671.563	4.33
671.893	4.27
672.223	4.33
672.554	4.27
672.884	4.32
673.214	4.32
673.544	4.39
673.874	4.38
674.204	4.42
674.534	4.37
674.864	4.45
675.194	4.44
675.524	4.55
675.853	4.54
676.183	4.53
676.513	4.42
676.842	4.49
677.172	4.44
677.501	4.53
677.831	4.5
678.16	4.54
678.489	4.52
678.819	4.5
679.148	4.4
679.477	4.35
679.806	4.39
680.135	4.38
680.464	4.35
680.793	4.4
681.122	4.25
681.451	4.18
681.78	4.13
682.108	4.11
682.437	4.08
682.766	4.07
683.094	4.11
683.423	4.02
683.751	3.98
684.08	3.87
684.408	3.77
684.737	3.79
685.065	3.79
685.393	3.74
685.721	3.73
686.049	3.67
686.377	3.68
686.705	3.6
687.033	3.63
687.361	3.7
687.689	3.79
688.017	3.88
688.345	3.85
688.673	3.86
689.0	3.88
689.328	3.88
689.655	4.02
689.983	4.05
690.31	4.08
690.638	4.03
690.965	3.96
691.292	3.88
691.62	3.87
691.947	3.89
692.274	3.92
692.601	3.95
692.928	3.9
693.255	3.82
693.582	3.77
693.909	3.75
694.236	3.8
694.562	3.9
694.889	4
695.216	4.02
695.542	4.07
695.869	4.07
696.196	4.14
696.522	4.17
696.848	4.12
697.175	4.05
697.501	4.15
697.827	4.21
698.154	4.13
698.48	4.01
698.806	4.01
699.132	3.93
699.458	4.01
699.784	3.95
700.11	3.93
700.435	4.01
700.761	4.1
701.087	3.98
701.413	3.99
701.738	4.01
702.064	4.1
702.389	4.04
702.715	4.13
703.04	4.1
703.366	4.06
703.691	4.11
704.016	4.05
704.341	4.09
704.666	4.17
704.992	4.15
705.317	4.16
705.642	4.16
705.967	4.22
706.291	4.26
706.616	4.34
706.941	4.48
707.266	4.59
707.59	4.74
707.915	4.77
708.24	4.79
708.564	4.85
708.889	4.91
709.213	5.06
709.537	5.1
709.862	5.03
710.186	4.93
710.51	4.98
710.834	5.01
711.158	4.93
711.482	4.89
711.806	5
712.13	5.02
712.454	4.92
712.778	4.88
713.102	4.75
713.426	4.81
713.749	4.81
714.073	4.76
714.396	4.63
714.72	4.73
715.043	4.71
715.367	4.63
715.69	4.65
716.013	4.74
716.337	4.62
716.66	4.64
716.983	4.62
717.306	4.57
717.629	4.35
717.952	4.29
718.275	4.17
718.598	4.11
718.921	4.09
719.243	4.04
719.566	4.06
719.889	4.09
720.211	4.03
720.534	3.97
720.856	3.96
721.179	4.23
721.501	4.2
721.823	4.02
722.146	4.15
722.468	4.05
722.79	4
723.112	3.88
723.434	3.95
723.756	4.07
724.078	4.25
724.4	4.17
724.722	4.05
725.044	4.06
725.366	4.19
725.687	4.2
726.009	4.12
726.33	4.07
726.652	4.15
726.973	4.06
727.295	4.24
727.616	4.09
727.938	4.29
728.259	4.36
728.58	4.42
728.901	4.45
729.222	4.3
729.543	4.43
729.864	4.57
730.185	4.32
730.506	4.38
730.827	4.2
731.148	4.02
731.468	3.89
731.789	3.92
732.11	3.89
732.43	3.85
732.751	4
733.071	4.05
733.392	4.05
733.712	4.31
734.032	4.42
734.352	4.58
734.673	4.8
734.993	4.93
735.313	4.94
735.633	5.49
735.953	5.72
736.273	5.83
736.593	5.98
736.912	6.05
737.232	6.06
737.552	6
737.871	5.8
738.191	5.95
738.51	6.29
738.83	6.43
739.149	6.12
739.469	6.28
739.788	6.2
740.107	6.08
740.426	6.23
740.746	6.33
741.065	6.34
741.384	6.58
741.703	6.54
742.022	6.31
742.341	6.36
742.659	6.39
742.978	6.28
743.297	6.41
743.615	6.63
743.934	6.55
744.253	6.52
744.571	6.9
744.89	7.12
745.208	7.16
745.526	7.2
745.845	7.07
746.163	7.04
746.481	7.34
746.799	7.39
747.117	7.4
747.435	7.62
747.753	7.86
748.071	7.52
748.389	7.46
748.706	7.35
749.024	7.38
749.342	7.56
749.659	7.65
749.977	7.28
750.295	7.28
750.612	7.34
750.929	7.01
751.247	7.16
751.564	7.32
751.881	7.18
752.198	7.56
752.516	7.72
752.833	7.72
753.15	7.5
753.467	7.37
753.783	7.21
754.1	7.23
754.417	7.34
754.734	7.21
755.05	7.34
755.367	7.31
755.684	7.2
756.0	6.9
756.317	6.76
756.633	6.73
756.949	6.81
757.266	6.94
757.582	6.57
757.898	6.43
758.214	6.15
758.53	5.86
758.846	5.5
759.162	5.11
759.478	5.07
759.794	4.93
760.11	4.77
760.426	4.54
760.741	4.39
761.057	4.05
761.372	3.86
761.688	3.65
762.003	3.61
762.319	3.64
762.634	3.68
762.949	3.43
763.265	3.49
763.58	3.35
763.895	3.17
764.21	2.97
764.525	3.03
764.84	2.87
765.155	2.91
765.47	3.03
765.785	3.1
766.099	3.19
766.414	3.28
766.729	3.05
767.043	3.38
767.358	3.64
767.672	3.67
767.987	3.99
768.301	4.42
768.615	4.77
768.929	4.68
769.244	4.85
769.558	5.09
769.872	5.24
770.186	5.76
770.5	5.76
770.814	5.79
771.127	6.27
771.441	6.35
771.755	6.65
772.069	6.29
772.382	6.19
772.696	6.31
773.009	5.98
773.323	6.14
773.636	5.84
773.95	6.22
774.263	6.72
774.576	6.27
774.889	6.4
775.202	6.25
775.515	6.89
775.828	7
776.141	7.47
776.454	7.8
776.767	7.93
777.08	8.22
777.393	7.81
777.705	7.41
778.018	7.84
778.33	7.8
778.643	7.79
778.955	7.07
779.268	7.01
779.58	6.74
779.892	6.46
780.205	6.14
780.517	5.85
780.829	6.26
781.141	6.51
781.453	6.4
781.765	6.65
782.077	6.38
782.388	6.94
782.7	7.1
783.012	7.11
783.324	6.99
783.635	7.25
783.947	7.36
784.258	6.66
784.57	6.37
784.881	6.33
785.192	5.66
785.504	5.95
785.815	5.41
786.126	5.27
786.437	5.1
786.748	5.16
787.059	5.21
787.37	4.98
787.681	5.44
787.992	6.29
788.302	6.57
788.613	7.14
788.924	7.19
789.234	8.02
789.545	8.57
789.855	8.39
790.166	8.31
790.476	8.51
790.786	8.82
791.096	8.7
791.407	8.45
791.717	8
792.027	7.54
792.337	6.97
792.647	6.73
792.957	6.5
793.266	6.75
793.576	6.65
793.886	5.84
794.196	5.44
794.505	9.37
794.815	8.72
795.124	9.13
795.434	9.22
795.743	8.87
796.052	8.4
796.362	8.01
796.671	8.02
796.98	8.55
797.289	8.86
797.598	8.99
797.907	5.23
798.216	5.42
798.525	5.19
798.834	5.31
799.142	6.16
799.451	6.86
799.76	7.61
800.068	7.24
800.377	7.38
800.685	8.08
800.994	8.44
801.302	8.17
801.61	8.29
801.918	8.53
802.227	8.53
802.535	8.6
802.843	8.08
803.151	7.58
803.459	7.53
803.767	7.01
804.074	6.18
804.382	6.08
804.69	7.85
804.998	8.04
805.305	7.97
805.613	8.15
805.92	8.46
806.228	8.66
806.535	8.02
806.842	8.28
807.15	8.12
807.457	8.25
807.764	7.72
808.071	6.15
808.378	6.23
808.685	6.44
808.992	6.17
809.299	5.82
809.605	5.59
809.912	6.48
810.219	6.04
810.525	6.71
810.832	6.04
811.138	6.58
811.445	6.46
811.751	5.83
812.058	5.01
812.364	5.29
812.67	5.34
812.976	5.29
813.282	4.5
813.588	4.52
813.894	4.12
814.2	4.68
814.506	4.39
814.812	4.31
815.118	4.39
815.423	4.73
815.729	5.01
816.035	4.86
816.34	5.81
816.646	6.41
816.951	7
817.256	7.05
817.562	7.3
817.867	7.66
818.172	8.06
818.477	7.76
818.782	7.47
819.087	7.13
819.392	6.96
819.697	5.42
820.002	4.49
820.306	4.27
820.611	4.12
820.916	3.83
821.22	3.43
821.525	2.52
821.829	2.97
822.134	2.83
822.438	2.65
822.742	2.51
823.047	2.66
823.351	2.86
823.655	2.79
823.959	2.68
824.263	2.61
824.567	2.66
824.871	3.02
825.174	3.03
825.478	4.73
825.782	4.78
826.086	5.05
826.389	5.16
826.693	5.3
826.996	5.45
827.3	5.54
827.603	5.57
827.906	5.72
828.209	5.92
828.513	5.88
828.816	3.93
829.119	3.91
829.422	3.84
829.725	3.78
830.028	3.59
830.33	3.32
830.633	3.44
830.936	3.62
831.238	3.29
831.541	2.53
831.844	2.36
832.146	2.32
832.448	2.35
832.751	1.74
833.053	2.14
833.355	2.53
833.657	2.51
833.96	2.63
834.262	2.72
834.564	2.92
834.865	3.47
835.167	5.47
835.469	5.55
835.771	5.03
836.073	5.46
836.374	5.02
836.676	4.5
836.977	4.54
837.279	4.2
837.58	4.24
837.882	4.53
838.183	4.76
838.484	2.14
838.785	2.15
839.086	3.53
839.387	4.01
839.688	4.87
839.989	6.09
840.29	7.2
840.591	8.43
840.892	8.63
841.192	9.21
841.493	8.98
841.794	9.77
842.094	10.02
842.394	9.48
842.695	5.62
842.995	3.5
843.295	2.24
843.596	1.27
843.896	1.27
844.196	1.27
844.496	1.27
844.796	1.27
845.096	1.27
845.396	1.27
845.695	1.27
845.995	6.25
846.295	8.25
846.594	9.55
846.894	10.04
847.194	10.19
847.493	11.35
847.792	11.7
848.092	12.03
848.391	9.42
848.69	10.32
848.989	9.47
849.288	8.35
849.587	7.97
849.886	6.99
850.185	8.15
850.484	10.75
850.783	11.73
851.081	13.02
851.38	14.9
851.679	17.93
851.977	19.32
852.276	21.23
852.574	21.04
852.872	20.87
853.171	19.95
853.469	17.68
853.767	14.4
854.065	11.61
854.363	9.48
854.661	9.12
854.959	6.68
855.257	2.02
855.555	0.81
855.853	0.48
856.15	1.1
856.448	3.17
856.746	6.27
857.043	7.25
857.341	11.19
857.638	17.86
857.935	18.24
858.233	18.82
858.53	20.41
858.827	22.18
859.124	22.32
859.421	20.15
859.718	19.69
860.015	18.86
860.312	20.5
860.609	16.29
860.905	11.7
861.202	8.7
861.499	10.14
861.795	12.64
862.092	10.63
862.388	8.06
862.684	10.57
862.981	8.96
863.277	5.04
863.573	3.75
863.869	5.84
864.165	4.79
864.461	6.51
864.757	5.27
865.053	3.06
865.349	1.93
865.645	4.05
865.94	3.74
866.236	2.61
866.532	4.95
866.827	5.62
867.123	3.89
867.418	4.52
867.713	3.96
868.009	3.77
868.304	5.58
868.599	6.02
868.894	6.02
869.189	6.33
869.484	10.48
869.779	11.18
870.074	10.81
870.369	13.22
870.663	15.39
870.958	13.29
871.252	13.59
871.547	12.03
871.842	14.01
872.136	11.91
872.43	12.08
872.725	11.26
873.019	11.8
873.313	14.55
873.607	14.46
873.901	12.29
874.195	16.82
874.489	17.59
874.783	18.97
875.077	16.59
875.37	20.24
875.664	18.09
875.958	18.58
876.251	16.44
876.545	11.57
876.838	7.15
877.132	7.93
877.425	5.32
877.718	3.46
878.011	2.45
878.305	4.18
878.598	0.06
878.891	1.09
879.184	1.09
879.476	2.04
879.769	2.78
880.062	3.44
880.355	0.99
880.647	1.72
880.94	2.94
881.232	2.27
881.525	1.37
881.817	0.6
882.11	0.6
882.402	0.6
882.694	0.6
882.986	0.6
883.278	0.6
883.57	0.42
883.862	1.47
884.154	1.83
884.446	2.25
884.738	2.38
885.03	2.92
885.321	3.6
885.613	3.76
885.904	4.38
886.196	4.12
886.487	4.76
886.779	4.2
887.07	3.16
887.361	2.97
887.652	3.08
887.943	2.52
888.234	3.16
888.525	2.58
888.816	2.71
889.107	3.96
889.398	5.26
889.689	4.8
889.979	5.85
890.27	7.91
890.56	8.71
890.851	9.14
891.141	11.79
891.432	11.76
891.722	14.54
