Data from thigh2_Reflection__0__12-11-10-742.txt Node

Date: Thu Aug 04 12:11:10 AEST 2022
User: kathy
Spectrometer: JAZA2503
Trigger mode: 0
Integration Time (sec): 2.883200E-1
Scans to average: 10
Electric dark correction enabled: true
Nonlinearity correction enabled: true
Boxcar width: 5
XAxis mode: Wavelengths
Number of Pixels in Spectrum: 2048
>>>>>Begin Spectral Data<<<<<
189.467	-99.66
189.852	-235.28
190.237	-5952.62
190.622	-395.89
191.007	-126.41
191.392	-241.32
191.777	-591.06
192.162	233.61
192.546	25.32
192.931	-172.04
193.316	-183.07
193.701	-236.28
194.086	163.12
194.47	165.66
194.855	474.89
195.24	12708.15
195.624	818.84
196.009	-1278.28
196.393	-758.42
196.778	3595.23
197.163	407.64
197.547	178.59
197.931	112.67
198.316	93.41
198.7	61.52
199.085	39.71
199.469	35.56
199.853	28.52
200.237	26.47
200.622	19.73
201.006	14.94
201.39	9.41
201.774	8.51
202.158	9.9
202.542	4
202.926	-2.1
203.31	-7.81
203.694	-10.15
204.078	-12.33
204.462	-5.98
204.846	-3.75
205.23	-7.88
205.614	-10.95
205.998	-18.71
206.381	-15.32
206.765	-12.06
207.149	-3.18
207.532	0.79
207.916	-1.64
208.3	1.49
208.683	-2.38
209.067	-3.72
209.45	2.53
209.834	7.81
210.217	14.69
210.601	16.51
210.984	18.71
211.367	19.23
211.751	22.99
212.134	27.87
212.517	26.41
212.901	30.91
213.284	33.86
213.667	35.81
214.05	33.49
214.433	27.91
214.816	25.98
215.199	28.5
215.582	24.1
215.965	21.26
216.348	14.25
216.731	16.02
217.114	12.5
217.497	8.22
217.88	4.67
218.262	2.55
218.645	5.71
219.028	1.43
219.411	-2.17
219.793	-2.98
220.176	-0.83
220.559	0.88
220.941	-2.24
221.324	-3.39
221.706	-1.11
222.089	-0.43
222.471	1.23
222.853	-1.57
223.236	-0.44
223.618	0.12
224	3.58
224.383	0.91
224.765	2.4
225.147	3.88
225.529	4.82
225.912	4.74
226.294	4.18
226.676	3.38
227.058	3.61
227.44	3.26
227.822	2.95
228.204	2.14
228.586	2.46
228.968	1.86
229.349	1.82
229.731	2.06
230.113	1.55
230.495	1.68
230.877	2.1
231.258	2.27
231.64	2.5
232.022	2.05
232.403	2.07
232.785	2.31
233.166	2.36
233.548	2.15
233.929	1.51
234.311	1.77
234.692	1.36
235.073	0.84
235.455	0.86
235.836	0.52
236.217	0.87
236.599	0.46
236.98	0.11
237.361	-0.07
237.742	-0.11
238.123	0.11
238.504	0.11
238.885	0.38
239.266	0.63
239.647	0.48
240.028	0.69
240.409	0.64
240.79	1.24
241.171	1.19
241.552	1.23
241.933	1.17
242.313	1.21
242.694	1.13
243.075	1.43
243.456	1.27
243.836	1.49
244.217	1.52
244.597	1.51
244.978	1.36
245.358	1.5
245.739	1.47
246.119	1.36
246.5	1.31
246.88	1.31
247.26	1.07
247.641	1.02
248.021	0.98
248.401	0.84
248.781	0.88
249.162	0.87
249.542	0.79
249.922	0.83
250.302	0.86
250.682	0.76
251.062	0.73
251.442	0.63
251.822	0.73
252.202	0.67
252.582	0.71
252.961	0.68
253.341	0.69
253.721	0.68
254.101	0.54
254.48	0.69
254.86	0.64
255.24	0.74
255.619	0.96
255.999	0.74
256.378	0.6
256.758	0.68
257.137	0.61
257.517	0.6
257.896	0.6
258.276	0.66
258.655	0.52
259.034	0.55
259.414	0.53
259.793	0.46
260.172	0.51
260.551	0.51
260.93	0.52
261.309	0.53
261.688	0.5
262.068	0.53
262.447	0.58
262.825	0.52
263.204	0.48
263.583	0.47
263.962	0.48
264.341	0.52
264.72	0.49
265.099	0.35
265.477	0.32
265.856	0.29
266.235	0.24
266.613	0.13
266.992	0.23
267.371	0.28
267.749	0.39
268.128	0.4
268.506	0.43
268.884	0.52
269.263	0.54
269.641	0.54
270.02	0.53
270.398	0.52
270.776	0.61
271.154	0.59
271.533	0.6
271.911	0.47
272.289	0.42
272.667	0.47
273.045	0.43
273.423	0.46
273.801	0.42
274.179	0.45
274.557	0.46
274.935	0.47
275.313	0.49
275.69	0.48
276.068	0.5
276.446	0.56
276.824	0.46
277.201	0.5
277.579	0.53
277.957	0.57
278.334	0.52
278.712	0.47
279.089	0.39
279.467	0.41
279.844	0.44
280.222	0.45
280.599	0.43
280.976	0.44
281.354	0.39
281.731	0.44
282.108	0.5
282.485	0.52
282.863	0.57
283.24	0.56
283.617	0.55
283.994	0.52
284.371	0.53
284.748	0.54
285.125	0.55
285.502	0.55
285.879	0.51
286.256	0.47
286.633	0.55
287.009	0.58
287.386	0.6
287.763	0.65
288.139	0.72
288.516	0.77
288.893	0.79
289.269	0.85
289.646	0.93
290.022	0.96
290.399	0.94
290.775	0.95
291.152	0.91
291.528	0.94
291.904	0.92
292.281	0.88
292.657	0.86
293.033	0.89
293.41	0.92
293.786	0.92
294.162	0.93
294.538	1.01
294.914	1.05
295.29	1.09
295.666	1.13
296.042	1.18
296.418	1.25
296.794	1.3
297.17	1.32
297.546	1.34
297.921	1.37
298.297	1.42
298.673	1.44
299.048	1.45
299.424	1.5
299.8	1.55
300.175	1.61
300.551	1.64
300.926	1.68
301.302	1.74
301.677	1.76
302.053	1.83
302.428	1.83
302.803	1.86
303.179	1.91
303.554	1.96
303.929	2
304.304	2.02
304.68	2.03
305.055	2.1
305.43	2.12
305.805	2.14
306.18	2.14
306.555	2.21
306.93	2.22
307.305	2.25
307.679	2.24
308.054	2.22
308.429	2.24
308.804	2.25
309.179	2.25
309.553	2.26
309.928	2.3
310.303	2.35
310.677	2.36
311.052	2.39
311.426	2.41
311.801	2.45
312.175	2.47
312.55	2.5
312.924	2.53
313.298	2.53
313.673	2.56
314.047	2.57
314.421	2.54
314.795	2.58
315.17	2.61
315.544	2.62
315.918	2.66
316.292	2.7
316.666	2.76
317.04	2.82
317.414	2.91
317.788	2.96
318.162	3.01
318.535	3.13
318.909	3.21
319.283	3.24
319.657	3.32
320.03	3.4
320.404	3.51
320.778	3.67
321.151	3.92
321.525	4.21
321.898	4.56
322.272	4.94
322.645	5.27
323.019	5.63
323.392	6.03
323.765	6.58
324.139	7.03
324.512	7.55
324.885	8.12
325.258	8.61
325.632	9.04
326.005	9.43
326.378	9.75
326.751	9.96
327.124	10.17
327.497	10.23
327.87	10.24
328.243	10.24
328.616	10.31
328.988	10.37
329.361	10.35
329.734	10.4
330.107	10.34
330.479	10.3
330.852	10.21
331.225	10.15
331.597	10.1
331.97	9.98
332.342	9.92
332.715	9.83
333.087	9.76
333.46	9.67
333.832	9.61
334.204	9.6
334.577	9.53
334.949	9.46
335.321	9.39
335.693	9.33
336.065	9.23
336.438	9.15
336.81	9.06
337.182	9.02
337.554	8.95
337.926	8.86
338.298	8.78
338.669	8.67
339.041	8.64
339.413	8.58
339.785	8.53
340.157	8.5
340.528	8.42
340.9	8.36
341.272	8.3
341.643	8.29
342.015	8.31
342.386	8.39
342.758	8.49
343.129	8.55
343.501	8.63
343.872	8.64
344.243	8.65
344.615	8.58
344.986	8.58
345.357	8.56
345.728	8.55
346.099	8.52
346.471	8.51
346.842	8.48
347.213	8.46
347.584	8.47
347.955	8.43
348.326	8.4
348.697	8.35
349.067	8.34
349.438	8.31
349.809	8.36
350.18	8.41
350.55	8.43
350.921	8.48
351.292	8.54
351.662	8.56
352.033	8.56
352.403	8.58
352.774	8.63
353.144	8.63
353.515	8.63
353.885	8.65
354.255	8.62
354.626	8.64
354.996	8.63
355.366	8.62
355.736	8.6
356.107	8.59
356.477	8.58
356.847	8.54
357.217	8.56
357.587	8.54
357.957	8.53
358.327	8.56
358.697	8.56
359.066	8.58
359.436	8.58
359.806	8.61
360.176	8.64
360.546	8.66
360.915	8.67
361.285	8.66
361.654	8.67
362.024	8.67
362.393	8.66
362.763	8.66
363.132	8.64
363.502	8.64
363.871	8.62
364.24	8.61
364.61	8.64
364.979	8.65
365.348	8.67
365.717	8.69
366.087	8.72
366.456	8.75
366.825	8.77
367.194	8.79
367.563	8.82
367.932	8.85
368.301	8.88
368.669	8.85
369.038	8.83
369.407	8.83
369.776	8.82
370.145	8.81
370.513	8.78
370.882	8.77
371.25	8.8
371.619	8.83
371.988	8.83
372.356	8.85
372.724	8.87
373.093	8.9
373.461	8.91
373.83	8.94
374.198	8.96
374.566	8.98
374.934	8.96
375.303	8.95
375.671	8.92
376.039	8.92
376.407	8.92
376.775	8.93
377.143	8.94
377.511	8.95
377.879	8.94
378.247	8.96
378.615	8.97
378.982	9.01
379.35	9.02
379.718	9.03
380.086	9.03
380.453	9.04
380.821	9.04
381.188	9.03
381.556	9.02
381.923	9.03
382.291	9
382.658	8.97
383.026	8.96
383.393	8.95
383.76	8.95
384.128	8.96
384.495	8.96
384.862	8.96
385.229	8.98
385.596	9
385.963	9
386.33	9.01
386.697	9.04
387.064	9.05
387.431	9.06
387.798	9.09
388.165	9.09
388.532	9.11
388.899	9.1
389.265	9.1
389.632	9.08
389.999	9.08
390.365	9.09
390.732	9.08
391.098	9.07
391.465	9.1
391.831	9.09
392.198	9.09
392.564	9.08
392.93	9.09
393.297	9.1
393.663	9.1
394.029	9.12
394.395	9.13
394.762	9.16
395.128	9.18
395.494	9.18
395.86	9.2
396.226	9.21
396.592	9.23
396.958	9.25
397.323	9.25
397.689	9.27
398.055	9.29
398.421	9.3
398.787	9.3
399.152	9.32
399.518	9.32
399.883	9.34
400.249	9.36
400.615	9.36
400.98	9.37
401.345	9.39
401.711	9.38
402.076	9.38
402.442	9.38
402.807	9.37
403.172	9.36
403.537	9.37
403.902	9.36
404.268	9.35
404.633	9.37
404.998	9.38
405.363	9.38
405.728	9.38
406.093	9.38
406.457	9.38
406.822	9.4
407.187	9.44
407.552	9.44
407.917	9.44
408.281	9.45
408.646	9.47
409.011	9.48
409.375	9.48
409.74	9.48
410.104	9.49
410.469	9.49
410.833	9.48
411.197	9.47
411.562	9.48
411.926	9.48
412.29	9.47
412.655	9.46
413.019	9.45
413.383	9.46
413.747	9.48
414.111	9.5
414.475	9.52
414.839	9.54
415.203	9.54
415.567	9.55
415.931	9.58
416.295	9.61
416.658	9.62
417.022	9.64
417.386	9.65
417.749	9.66
418.113	9.66
418.477	9.65
418.84	9.66
419.204	9.69
419.567	9.71
419.931	9.71
420.294	9.7
420.657	9.72
421.021	9.75
421.384	9.76
421.747	9.78
422.11	9.79
422.473	9.81
422.836	9.83
423.199	9.82
423.562	9.81
423.925	9.81
424.288	9.83
424.651	9.84
425.014	9.83
425.377	9.84
425.74	9.82
426.102	9.85
426.465	9.89
426.828	9.9
427.19	9.93
427.553	9.95
427.916	9.94
428.278	9.93
428.641	9.92
429.003	9.93
429.365	9.93
429.728	9.92
430.09	9.88
430.452	9.86
430.814	9.84
431.177	9.82
431.539	9.81
431.901	9.83
432.263	9.85
432.625	9.87
432.987	9.9
433.349	9.91
433.711	9.95
434.072	10
434.434	10.03
434.796	10.06
435.158	10.12
435.519	10.14
435.881	10.17
436.243	10.18
436.604	10.17
436.966	10.18
437.327	10.19
437.689	10.2
438.05	10.2
438.411	10.2
438.773	10.2
439.134	10.2
439.495	10.22
439.856	10.23
440.218	10.23
440.579	10.25
440.94	10.25
441.301	10.27
441.662	10.27
442.023	10.28
442.384	10.3
442.745	10.32
443.105	10.3
443.466	10.32
443.827	10.3
444.188	10.31
444.548	10.31
444.909	10.3
445.269	10.28
445.63	10.32
445.99	10.32
446.351	10.34
446.711	10.34
447.072	10.36
447.432	10.36
447.792	10.39
448.153	10.41
448.513	10.42
448.873	10.46
449.233	10.46
449.593	10.42
449.953	10.43
450.313	10.41
450.673	10.4
451.033	10.38
451.393	10.37
451.753	10.35
452.113	10.94
452.472	10.92
452.832	10.86
453.192	10.84
453.551	10.83
453.911	10.79
454.271	10.75
454.63	10.74
454.989	10.72
455.349	10.72
455.708	10.7
456.068	10.38
456.427	10.39
456.786	10.41
457.145	10.43
457.505	10.45
457.864	10.49
458.223	10.53
458.582	10.57
458.941	10.61
459.3	10.64
459.659	10.67
460.018	10.7
460.376	10.71
460.735	10.73
461.094	10.72
461.453	10.73
461.811	10.72
462.17	10.71
462.529	10.7
462.887	10.68
463.246	10.68
463.604	10.67
463.963	10.67
464.321	10.58
464.679	10.57
465.038	10.57
465.396	10.56
465.754	10.57
466.112	10.57
466.47	10.56
466.828	10.55
467.186	10.55
467.544	10.56
467.902	10.55
468.26	10.67
468.618	10.68
468.976	10.68
469.334	10.69
469.692	10.68
470.049	10.68
470.407	10.66
470.765	10.65
471.122	10.65
471.48	10.63
471.837	10.65
472.195	10.66
472.552	10.68
472.909	10.68
473.267	10.68
473.624	10.68
473.981	10.67
474.338	10.67
474.696	10.69
475.053	10.68
475.41	10.69
475.767	10.67
476.124	10.66
476.481	10.65
476.838	10.65
477.194	10.65
477.551	10.65
477.908	10.65
478.265	10.64
478.621	10.62
478.978	10.62
479.335	10.6
479.691	10.61
480.048	10.59
480.404	10.59
480.761	10.59
481.117	10.58
481.473	10.54
481.83	10.54
482.186	10.55
482.542	10.54
482.898	10.54
483.255	10.57
483.611	10.57
483.967	10.58
484.323	10.58
484.679	10.56
485.035	10.56
485.39	10.57
485.746	10.57
486.102	10.57
486.458	10.55
486.814	10.55
487.169	10.54
487.525	10.53
487.88	10.51
488.236	10.52
488.591	10.54
488.947	10.53
489.302	10.54
489.658	10.55
490.013	10.53
490.368	10.53
490.723	10.52
491.079	10.51
491.434	10.5
491.789	10.5
492.144	10.49
492.499	10.47
492.854	10.45
493.209	10.44
493.564	10.42
493.919	10.43
494.273	10.43
494.628	10.42
494.983	10.39
495.338	10.38
495.692	10.37
496.047	10.36
496.401	10.34
496.756	10.34
497.11	10.32
497.465	10.3
497.819	10.27
498.173	10.26
498.528	10.25
498.882	10.26
499.236	10.28
499.59	10.28
499.944	10.29
500.298	10.31
500.652	10.33
501.006	10.33
501.36	10.34
501.714	10.34
502.068	10.34
502.422	10.34
502.776	10.33
503.129	10.33
503.483	10.32
503.837	10.33
504.19	10.32
504.544	10.3
504.897	10.29
505.251	10.27
505.604	10.25
505.958	10.23
506.311	10.21
506.664	10.18
507.017	10.14
507.371	10.09
507.724	10.04
508.077	10.01
508.43	9.98
508.783	9.95
509.136	9.94
509.489	9.93
509.842	9.9
510.195	9.87
510.547	9.87
510.9	9.85
511.253	9.84
511.606	9.81
511.958	9.76
512.311	9.73
512.663	9.69
513.016	9.66
513.368	9.63
513.721	9.61
514.073	9.6
514.425	9.58
514.778	9.56
515.13	9.53
515.482	9.52
515.834	9.51
516.186	9.5
516.538	9.51
516.89	9.51
517.242	9.51
517.594	9.5
517.946	9.51
518.298	9.51
518.65	9.51
519.001	9.49
519.353	9.48
519.705	9.45
520.056	9.43
520.408	9.39
520.759	9.35
521.111	9.32
521.462	9.3
521.814	9.27
522.165	9.23
522.516	9.2
522.868	9.18
523.219	9.16
523.57	9.13
523.921	9.12
524.272	9.1
524.623	9.06
524.974	9.02
525.325	8.97
525.676	8.92
526.027	8.9
526.378	8.86
526.728	8.85
527.079	8.81
527.43	8.78
527.78	8.75
528.131	8.72
528.481	8.7
528.832	8.7
529.182	8.69
529.533	8.68
529.883	8.68
530.233	8.66
530.584	8.64
530.934	8.66
531.284	8.64
531.634	8.61
531.984	8.6
532.334	8.58
532.684	8.55
533.034	8.54
533.384	8.52
533.734	8.49
534.084	8.47
534.434	8.44
534.783	8.41
535.133	8.38
535.483	8.37
535.832	8.36
536.182	8.32
536.531	8.29
536.881	8.26
537.23	8.24
537.58	8.2
537.929	8.16
538.278	9.27
538.628	9.24
538.977	9.24
539.326	9.21
539.675	9.16
540.024	9.14
540.373	9.11
540.722	9.08
541.071	9.05
541.42	9.04
541.769	9.04
542.117	7.88
542.466	7.83
542.815	7.81
543.163	7.78
543.512	7.79
543.861	7.76
544.209	7.76
544.558	7.73
544.906	7.71
545.254	7.68
545.603	7.67
545.951	7.65
546.299	7.67
546.647	7.68
546.996	7.66
547.344	7.63
547.692	7.62
548.04	7.6
548.388	7.59
548.736	7.58
549.083	7.57
549.431	7.55
549.779	7.52
550.127	7.46
550.475	7.4
550.822	7.36
551.17	7.3
551.517	7.29
551.865	7.27
552.212	7.26
552.56	7.26
552.907	7.22
553.254	7.19
553.602	7.16
553.949	7.15
554.296	7.12
554.643	7.09
554.99	7.1
555.337	7.07
555.684	7.05
556.031	7
556.378	6.93
556.725	6.92
557.072	6.89
557.419	6.91
557.765	6.9
558.112	6.88
558.459	6.88
558.805	6.88
559.152	6.86
559.498	6.82
559.845	6.83
560.191	6.79
560.538	6.77
560.884	6.77
561.23	6.72
561.576	6.69
561.923	6.65
562.269	6.62
562.615	6.59
562.961	6.57
563.307	6.59
563.653	6.57
563.999	6.56
564.344	6.53
564.69	6.52
565.036	6.52
565.382	6.52
565.727	6.5
566.073	6.48
566.419	6.44
566.764	6.41
567.11	6.35
567.455	6.29
567.8	6.29
568.146	6.26
568.491	6.22
568.836	6.2
569.181	6.19
569.527	6.18
569.872	6.18
570.217	6.16
570.562	6.15
570.907	6.14
571.252	6.14
571.597	6.12
571.941	6.13
572.286	6.11
572.631	6.09
572.976	6.08
573.32	6.04
573.665	6.02
574.009	6.02
574.354	6
574.698	5.99
575.043	5.98
575.387	5.97
575.731	5.94
576.076	5.94
576.42	5.93
576.764	5.92
577.108	5.91
577.452	5.91
577.796	5.91
578.14	5.88
578.484	5.87
578.828	5.84
579.172	5.83
579.516	5.82
579.86	5.8
580.203	5.8
580.547	5.79
580.891	5.78
581.234	5.77
581.578	5.76
581.921	5.76
582.264	5.75
582.608	5.74
582.951	5.74
583.294	5.73
583.638	5.73
583.981	5.74
584.324	5.73
584.667	5.73
585.01	5.72
585.353	5.7
585.696	5.71
586.039	5.72
586.382	5.73
586.725	5.73
587.067	5.73
587.41	5.73
587.753	5.72
588.095	5.7
588.438	5.71
588.781	5.71
589.123	5.7
589.465	5.68
589.808	5.68
590.15	5.68
590.492	5.68
590.835	5.67
591.177	5.63
591.519	5.62
591.861	5.61
592.203	5.61
592.545	5.61
592.887	5.62
593.229	5.6
593.571	5.57
593.913	5.55
594.254	5.54
594.596	5.53
594.938	5.52
595.279	5.51
595.621	5.51
595.963	5.5
596.304	5.49
596.645	5.5
596.987	5.5
597.328	5.47
597.669	5.43
598.011	5.43
598.352	5.44
598.693	5.44
599.034	5.43
599.375	5.42
599.716	5.42
600.057	5.41
600.398	5.39
600.739	5.39
601.08	5.39
601.42	5.39
601.761	5.36
602.102	5.35
602.442	5.35
602.783	5.35
603.123	5.36
603.464	5.34
603.804	5.33
604.145	5.31
604.485	5.3
604.825	5.3
605.166	5.31
605.506	5.3
605.846	5.27
606.186	5.26
606.526	5.26
606.866	5.25
607.206	5.24
607.546	5.23
607.886	5.23
608.225	5.22
608.565	5.21
608.905	5.19
609.245	5.18
609.584	5.18
609.924	5.18
610.263	5.17
610.603	5.17
610.942	5.17
611.281	5.15
611.621	5.14
611.96	5.14
612.299	5.15
612.638	5.16
612.978	5.17
613.317	5.17
613.656	5.16
613.995	5.14
614.334	5.14
614.672	5.12
615.011	5.12
615.35	5.11
615.689	5.09
616.027	5.07
616.366	5.07
616.705	5.05
617.043	5.04
617.382	5.04
617.72	5.03
618.059	5
618.397	5
618.735	5.01
619.073	5
619.412	4.99
619.75	4.93
620.088	4.92
620.426	4.9
620.764	4.89
621.102	4.89
621.44	4.87
621.778	4.88
622.115	4.88
622.453	4.88
622.791	4.86
623.129	4.87
623.466	4.9
623.804	4.9
624.141	4.9
624.479	4.89
624.816	4.89
625.153	4.9
625.491	4.9
625.828	4.9
626.165	4.9
626.502	4.9
626.84	4.89
627.177	4.91
627.514	4.93
627.851	4.94
628.188	4.91
628.524	4.89
628.861	4.84
629.198	4.83
629.535	4.83
629.871	4.79
630.208	4.77
630.545	4.78
630.881	4.79
631.218	4.77
631.554	4.77
631.89	4.78
632.227	4.79
632.563	4.79
632.899	4.78
633.235	4.75
633.572	4.74
633.908	4.73
634.244	4.71
634.58	4.66
634.916	4.65
635.251	4.64
635.587	4.61
635.923	4.64
636.259	4.66
636.595	4.66
636.93	4.71
637.266	4.72
637.601	4.69
637.937	4.67
638.272	4.69
638.608	4.66
638.943	4.61
639.278	4.64
639.613	4.6
639.949	4.6
640.284	4.55
640.619	4.49
640.954	4.45
641.289	4.47
641.624	4.5
641.959	4.42
642.294	4.39
642.628	4.43
642.963	4.38
643.298	4.37
643.632	4.44
643.967	4.46
644.302	4.44
644.636	4.49
644.971	4.47
645.305	4.42
645.639	4.45
645.974	4.47
646.308	4.4
646.642	4.4
646.976	4.37
647.31	4.28
647.644	4.22
647.978	4.21
648.312	4.14
648.646	4.14
648.98	4.2
649.314	4.18
649.647	4.16
649.981	4.19
650.315	4.12
650.648	4.12
650.982	4.08
651.315	4.15
651.649	4.13
651.982	4.12
652.316	4.11
652.649	4.07
652.982	4.01
653.315	4.01
653.648	4.03
653.982	4.03
654.315	3.95
654.648	3.94
654.981	3.9
655.313	3.96
655.646	4.01
655.979	4.05
656.312	4.01
656.644	4.12
656.977	4.15
657.31	4.12
657.642	4.18
657.975	4.26
658.307	4.26
658.64	4.28
658.972	4.26
659.304	4.22
659.636	4.17
659.969	4.16
660.301	4.14
660.633	4.13
660.965	4.14
661.297	4.11
661.629	4.12
661.961	4.09
662.292	4.05
662.624	4.04
662.956	4.07
663.288	4.07
663.619	4.07
663.951	4.03
664.282	3.97
664.614	3.95
664.945	3.93
665.276	3.86
665.608	3.89
665.939	3.88
666.27	3.81
666.601	3.75
666.933	3.72
667.264	3.75
667.595	3.8
667.926	3.85
668.256	3.81
668.587	3.82
668.918	3.87
669.249	3.86
669.58	3.83
669.91	3.87
670.241	3.9
670.571	3.91
670.902	3.93
671.232	3.82
671.563	3.74
671.893	3.73
672.223	3.68
672.554	3.66
672.884	3.73
673.214	3.7
673.544	3.77
673.874	3.72
674.204	3.77
674.534	3.7
674.864	3.76
675.194	3.78
675.524	3.88
675.853	3.97
676.183	3.95
676.513	3.91
676.842	3.97
677.172	3.95
677.501	4.05
677.831	4.01
678.16	3.99
678.489	4.03
678.819	4.05
679.148	3.96
679.477	3.92
679.806	3.96
680.135	3.88
680.464	3.83
680.793	3.75
681.122	3.66
681.451	3.54
681.78	3.57
682.108	3.5
682.437	3.41
682.766	3.38
683.094	3.36
683.423	3.3
683.751	3.27
684.08	3.29
684.408	3.29
684.737	3.33
685.065	3.35
685.393	3.35
685.721	3.42
686.049	3.48
686.377	3.5
686.705	3.49
687.033	3.53
687.361	3.67
687.689	3.69
688.017	3.87
688.345	3.9
688.673	4.03
689.0	4.05
689.328	4.02
689.655	4.04
689.983	4.06
690.31	4.07
690.638	4.01
690.965	3.87
691.292	3.78
691.62	3.65
691.947	3.59
692.274	3.49
692.601	3.51
692.928	3.43
693.255	3.35
693.582	3.34
693.909	3.32
694.236	3.45
694.562	3.52
694.889	3.58
695.216	3.63
695.542	3.68
695.869	3.68
696.196	3.68
696.522	3.74
696.848	3.83
697.175	3.83
697.501	3.89
697.827	3.75
698.154	3.7
698.48	3.63
698.806	3.59
699.132	3.46
699.458	3.49
699.784	3.47
700.11	3.48
700.435	3.47
700.761	3.47
701.087	3.39
701.413	3.46
701.738	3.47
702.064	3.5
702.389	3.39
702.715	3.44
703.04	3.42
703.366	3.32
703.691	3.31
704.016	3.26
704.341	3.25
704.666	3.25
704.992	3.16
705.317	3.15
705.642	3.11
705.967	3.21
706.291	3.24
706.616	3.36
706.941	3.4
707.266	3.41
707.59	3.45
707.915	3.43
708.24	3.3
708.564	3.36
708.889	3.37
709.213	3.44
709.537	3.3
709.862	3.26
710.186	3.03
710.51	3.06
710.834	3.09
711.158	3.13
711.482	3.12
711.806	3.35
712.13	3.33
712.454	3.4
712.778	3.57
713.102	3.62
713.426	3.63
713.749	3.79
714.073	3.92
714.396	3.8
714.72	3.71
715.043	3.66
715.367	3.58
715.69	3.59
716.013	3.52
716.337	3.33
716.66	3.42
716.983	3.55
717.306	3.43
717.629	3.2
717.952	3.28
718.275	3.3
718.598	3.4
718.921	3.42
719.243	3.49
719.566	3.58
719.889	3.71
720.211	3.59
720.534	3.56
720.856	3.6
721.179	3.64
721.501	3.66
721.823	3.65
722.146	3.65
722.468	3.63
722.79	3.45
723.112	3.41
723.434	3.31
723.756	3.47
724.078	3.31
724.4	3.3
724.722	3.32
725.044	3.16
725.366	3.08
725.687	3.1
726.009	3.12
726.33	3.24
726.652	3.43
726.973	3.36
727.295	3.25
727.616	3.33
727.938	3.42
728.259	3.5
728.58	3.64
728.901	3.7
729.222	3.63
729.543	3.61
729.864	3.63
730.185	3.31
730.506	3.35
730.827	3.35
731.148	3.34
731.468	3.24
731.789	3.32
732.11	3.17
732.43	3.12
732.751	3.22
733.071	3.15
733.392	3.14
733.712	3.21
734.032	3.46
734.352	3.48
734.673	3.42
734.993	3.43
735.313	3.29
735.633	3.84
735.953	3.98
736.273	3.94
736.593	4.05
736.912	3.98
737.232	3.89
737.552	3.56
737.871	3.48
738.191	3.73
738.51	3.92
738.83	4.1
739.149	3.81
739.469	4.02
739.788	3.93
740.107	4.03
740.426	4.07
740.746	4.22
741.065	4.28
741.384	4.31
741.703	4.17
742.022	3.97
742.341	3.97
742.659	3.8
742.978	3.34
743.297	3.53
743.615	3.37
743.934	3.38
744.253	3.38
744.571	3.67
744.89	3.98
745.208	4
745.526	4
745.845	3.62
746.163	3.47
746.481	3.94
746.799	3.8
747.117	3.83
747.435	4.09
747.753	4.33
748.071	4.06
748.389	3.85
748.706	3.75
749.024	3.84
749.342	4.14
749.659	4.57
749.977	4.33
750.295	4.52
750.612	4.57
750.929	4.18
751.247	4.3
751.564	4.26
751.881	4.32
752.198	4.64
752.516	4.65
752.833	4.44
753.15	4.07
753.467	3.96
753.783	3.62
754.1	3.7
754.417	3.78
754.734	3.21
755.05	3.39
755.367	3.15
755.684	2.79
756.0	2.84
756.317	3.01
756.633	3.04
756.949	3.28
757.266	3.55
757.582	3.26
757.898	3.29
758.214	3.65
758.53	3.5
758.846	3.68
759.162	3.68
759.478	3.41
759.794	3.42
760.11	3.52
760.426	3.18
760.741	3.16
761.057	3.13
761.372	2.98
761.688	2.92
762.003	3.02
762.319	3.03
762.634	3.18
762.949	3.4
763.265	3.3
763.58	3.18
763.895	3.28
764.21	3.03
764.525	2.97
764.84	3.05
765.155	3.06
765.47	3.21
765.785	3.14
766.099	3.22
766.414	3.11
766.729	3.18
767.043	3.57
767.358	3.6
767.672	3.68
767.987	3.76
768.301	3.89
768.615	4.1
768.929	3.95
769.244	4.14
769.558	4.26
769.872	4.27
770.186	4.2
770.5	3.91
770.814	3.63
771.127	4.12
771.441	4.21
771.755	4.25
772.069	3.75
772.382	3.36
772.696	2.99
773.009	2.82
773.323	2.92
773.636	2.93
773.95	3.02
774.263	3.36
774.576	2.88
774.889	3.33
775.202	3.11
775.515	3.44
775.828	3.5
776.141	3.96
776.454	3.85
776.767	4.12
777.08	4.07
777.393	4.11
777.705	3.99
778.018	3.96
778.33	3.71
778.643	3.99
778.955	3.57
779.268	3.85
779.58	3.6
779.892	3.8
780.205	3.53
780.517	3.7
780.829	3.96
781.141	4.15
781.453	4.1
781.765	4.17
782.077	3.63
782.388	3.87
782.7	3.89
783.012	4.06
783.324	3.83
783.635	3.7
783.947	3.98
784.258	2.91
784.57	2.93
784.881	3.16
785.192	2.8
785.504	3.29
785.815	3.33
786.126	3.22
786.437	3.04
786.748	2.83
787.059	2.76
787.37	1.95
787.681	2.58
787.992	2.75
788.302	3.14
788.613	3.22
788.924	3.46
789.234	4.31
789.545	4.84
789.855	4.55
790.166	4.68
790.476	5.09
790.786	5.79
791.096	5.79
791.407	5.91
791.717	5.45
792.027	5.62
792.337	5.21
792.647	4.44
792.957	4.24
793.266	4.62
793.576	4.92
793.886	4.48
794.196	4.13
794.505	7.53
794.815	7.25
795.124	7.55
795.434	7.53
795.743	7.14
796.052	7.38
796.362	6.97
796.671	6.92
796.98	7.19
797.289	7.22
797.598	7.07
797.907	3.77
798.216	3.87
798.525	4.15
798.834	4.29
799.142	4.86
799.451	5.01
799.76	5.43
800.068	5.45
800.377	5.01
800.685	5.85
800.994	6.25
801.302	6.29
801.61	6.06
801.918	5.34
802.227	5.24
802.535	5.48
802.843	4.75
803.151	4.35
803.459	4.07
803.767	4.28
804.074	3.36
804.382	3.44
804.69	5.16
804.998	5.42
805.305	5.79
805.613	6.11
805.92	5.87
806.228	6.24
806.535	5.45
806.842	5.29
807.15	4.81
807.457	5.33
807.764	5.06
808.071	3.32
808.378	3.35
808.685	3.38
808.992	3.19
809.299	3.32
809.605	3.07
809.912	4.61
810.219	4.93
810.525	5.08
810.832	4.54
811.138	4.84
811.445	4.89
811.751	4.65
812.058	4.53
812.364	4.42
812.67	4.35
812.976	4.61
813.282	3.6
813.588	3.03
813.894	3.35
814.2	3.66
814.506	3.44
814.812	2.99
815.118	3.08
815.423	3.08
815.729	3.53
816.035	3.28
816.34	2.65
816.646	4.11
816.951	4.99
817.256	4.74
817.562	4.6
817.867	4.7
818.172	4.5
818.477	4.17
818.782	3.94
819.087	4.2
819.392	4.69
819.697	4.72
820.002	3.59
820.306	3.52
820.611	3.67
820.916	3.81
821.22	3.92
821.525	4.04
821.829	4.44
822.134	4.85
822.438	4.22
822.742	4.03
823.047	4.37
823.351	4.38
823.655	4.3
823.959	4.17
824.263	4.03
824.567	4.06
824.871	4.19
825.174	4.08
825.478	5.43
825.782	5.73
826.086	5.91
826.389	5.86
826.693	5.97
826.996	6.08
827.3	6.26
827.603	6.39
827.906	6.3
828.209	6.4
828.513	6.59
828.816	4.54
829.119	4.38
829.422	4.18
829.725	4.06
830.028	3.82
830.33	3.46
830.633	3.42
830.936	3.5
831.238	3.63
831.541	3.36
831.844	3.44
832.146	4.03
832.448	4
832.751	4.22
833.053	4.81
833.355	5.39
833.657	5.32
833.96	5.02
834.262	5.01
834.564	4.97
834.865	5.2
835.167	6.33
835.469	5.84
835.771	5.65
836.073	5.17
836.374	4.19
836.676	3.36
836.977	3.74
837.279	3.89
837.58	3.67
837.882	3.56
838.183	3.63
838.484	1.73
838.785	1.46
839.086	1.81
839.387	2.11
839.688	2.88
839.989	3.93
840.29	3.98
840.591	4.66
840.892	4.49
841.192	5.05
841.493	4.7
841.794	5.79
842.094	6.6
842.394	6.86
842.695	3.63
842.995	2.53
843.295	2.05
843.596	2.1
843.896	1.19
844.196	1.88
844.496	1.43
844.796	2.26
845.096	2.28
845.396	1.39
845.695	1.46
845.995	8.19
846.295	9.26
846.594	9.07
846.894	10.2
847.194	9.24
847.493	9.96
847.792	10.35
848.092	9.3
848.391	6.67
848.69	8.08
848.989	8.22
849.288	6.9
849.587	8.02
849.886	9.57
850.185	9.11
850.484	11.92
850.783	11.88
851.081	12.46
851.38	13.03
851.679	16.17
851.977	15.6
852.276	15.64
852.574	16.04
852.872	15.82
853.171	13.69
853.469	12.8
853.767	10.4
854.065	10.22
854.363	7.75
854.661	8.3
854.959	6.27
855.257	5.32
855.555	4.56
855.853	5.44
856.15	5.4
856.448	6.6
856.746	8.09
857.043	8.07
857.341	10.28
857.638	16.01
857.935	14.27
858.233	14.73
858.53	15.45
858.827	17.25
859.124	15.97
859.421	15.33
859.718	17.13
860.015	16.95
860.312	17.79
860.609	14.77
860.905	10.45
861.202	11.75
861.499	11.35
861.795	12.41
862.092	8.69
862.388	6.58
862.684	7.92
862.981	5.68
863.277	2.2
863.573	3.24
863.869	4.59
864.165	3.29
864.461	3.01
864.757	3.57
865.053	4
865.349	6.89
865.645	8.12
865.94	7.35
866.236	5.46
866.532	7.09
866.827	5.68
867.123	6.37
867.418	8.19
867.713	7.14
868.009	5.91
868.304	4.92
868.599	4.37
868.894	5.84
869.189	6.12
869.484	9.71
869.779	12.73
870.074	13.82
870.369	15.04
870.663	14.22
870.958	12.85
871.252	12.57
871.547	11.97
871.842	11.81
872.136	9.21
872.43	8.31
872.725	7.08
873.019	6.18
873.313	6.98
873.607	3.15
873.901	3.04
874.195	4.06
874.489	5.12
874.783	3.88
875.077	4.93
875.37	9.98
875.664	10.62
875.958	11.66
876.251	12.52
876.545	10.2
876.838	8.81
877.132	11.67
877.425	14.37
877.718	13.23
878.011	15.18
878.305	16.31
878.598	14.24
878.891	14.34
879.184	15.45
879.476	15.26
879.769	15.64
880.062	16.94
880.355	12.93
880.647	13.65
880.94	13.43
881.232	11.59
881.525	9.32
881.817	8
882.11	8.42
882.402	6.2
882.694	4.76
882.986	4.17
883.278	4.53
883.57	5.49
883.862	4.63
884.154	4.91
884.446	5.6
884.738	5.6
885.03	5.62
885.321	5.35
885.613	5.15
885.904	5.52
886.196	6.01
886.487	6.1
886.779	5.47
887.07	5.17
887.361	5.42
887.652	4.99
887.943	4.27
888.234	4.38
888.525	3.25
888.816	3.7
889.107	3.73
889.398	4.01
889.689	4.73
889.979	5.9
890.27	7.38
890.56	7.57
890.851	8.46
891.141	11.15
891.432	11.48
891.722	15.43
