Data from groin2_Reflection__1__15-22-55-345.txt Node

Date: Thu Aug 04 15:22:55 AEST 2022
User: kathy
Spectrometer: JAZA2503
Trigger mode: 0
Integration Time (sec): 2.439700E-1
Scans to average: 10
Electric dark correction enabled: true
Nonlinearity correction enabled: true
Boxcar width: 5
XAxis mode: Wavelengths
Number of Pixels in Spectrum: 2048
>>>>>Begin Spectral Data<<<<<
189.467	260.43
189.852	157.4
190.237	177.04
190.622	174.16
191.007	166.92
191.392	121.57
191.777	73.58
192.162	83.37
192.546	76.04
192.931	-308.93
193.316	254.65
193.701	181.02
194.086	113.79
194.47	117.91
194.855	-2933.69
195.24	124.26
195.624	129.84
196.009	104.91
196.393	133.81
196.778	138.82
197.163	19.32
197.547	37.81
197.931	15.09
198.316	17.26
198.7	23.86
199.085	30.43
199.469	39.42
199.853	31.61
200.237	21.48
200.622	21.65
201.006	25.75
201.39	30.9
201.774	23.51
202.158	30.16
202.542	32.72
202.926	29.41
203.31	24.78
203.694	21.73
204.078	22.91
204.462	32.52
204.846	30.91
205.23	34.22
205.614	28.68
205.998	37.51
206.381	43.4
206.765	46
207.149	44.64
207.532	44
207.916	43.07
208.3	45.15
208.683	42.15
209.067	50.37
209.45	41.24
209.834	43.61
210.217	42.67
210.601	32.89
210.984	31.06
211.367	36.29
211.751	33.45
212.134	30.29
212.517	36.98
212.901	36.32
213.284	33.18
213.667	37.45
214.05	37.03
214.433	32.85
214.816	34.39
215.199	32.52
215.582	28.99
215.965	25.67
216.348	27.98
216.731	16.68
217.114	9.63
217.497	6.25
217.88	1.16
218.262	-5.99
218.645	-7.89
219.028	-10.87
219.411	-15.79
219.793	-13.53
220.176	-12.63
220.559	-10.44
220.941	-7.01
221.324	-0.7
221.706	3.85
222.089	8.43
222.471	11.01
222.853	10.49
223.236	11.52
223.618	11.07
224	9.57
224.383	9.21
224.765	8.28
225.147	7.87
225.529	7.75
225.912	5.78
226.294	2.78
226.676	1.95
227.058	0.93
227.44	1.9
227.822	2.9
228.204	3.54
228.586	4.01
228.968	3.71
229.349	3.22
229.731	3.16
230.113	2.59
230.495	2.96
230.877	2.86
231.258	3.53
231.64	3.05
232.022	2.55
232.403	2.18
232.785	2.16
233.166	2.07
233.548	2.09
233.929	1.96
234.311	2.48
234.692	2.86
235.073	3.14
235.455	2.84
235.836	3.89
236.217	4
236.599	4.42
236.98	4.41
237.361	4.37
237.742	4.66
238.123	4.17
238.504	4.18
238.885	3.45
239.266	3.13
239.647	2.86
240.028	2.37
240.409	2.34
240.79	2.21
241.171	2.03
241.552	2.14
241.933	2.12
242.313	2.31
242.694	2.4
243.075	2.57
243.456	2.57
243.836	2.62
244.217	2.71
244.597	2.79
244.978	2.75
245.358	2.95
245.739	2.81
246.119	2.71
246.5	2.72
246.88	2.47
247.26	2.35
247.641	2.37
248.021	2.36
248.401	2.27
248.781	2.25
249.162	2.37
249.542	2.15
249.922	2.19
250.302	2.22
250.682	2.02
251.062	2.14
251.442	2.16
251.822	2.13
252.202	2.14
252.582	2.07
252.961	2.17
253.341	2.07
253.721	2.18
254.101	2.17
254.48	2.14
254.86	2.43
255.24	2.46
255.619	2.46
255.999	2.48
256.378	2.37
256.758	2.51
257.137	2.25
257.517	2.01
257.896	1.86
258.276	1.71
258.655	1.53
259.034	1.35
259.414	1.21
259.793	1.18
260.172	1.1
260.551	1.07
260.93	0.91
261.309	0.9
261.688	0.85
262.068	0.84
262.447	0.87
262.825	0.89
263.204	0.8
263.583	0.79
263.962	0.77
264.341	0.91
264.72	0.94
265.099	1.12
265.477	1.1
265.856	1.18
266.235	1.23
266.613	1.21
266.992	1.28
267.371	1.42
267.749	1.55
268.128	1.51
268.506	1.44
268.884	1.55
269.263	1.54
269.641	1.52
270.02	1.46
270.398	1.42
270.776	1.44
271.154	1.44
271.533	1.48
271.911	1.43
272.289	1.45
272.667	1.39
273.045	1.31
273.423	1.23
273.801	1.31
274.179	1.32
274.557	1.42
274.935	1.34
275.313	1.31
275.69	1.27
276.068	1.25
276.446	1.2
276.824	1.17
277.201	1.12
277.579	1.15
277.957	1.07
278.334	1.06
278.712	0.97
279.089	1.03
279.467	1.07
279.844	1.07
280.222	1.02
280.599	1
280.976	1.06
281.354	1.01
281.731	0.97
282.108	1.01
282.485	0.99
282.863	0.98
283.24	0.97
283.617	0.96
283.994	0.93
284.371	0.92
284.748	1.01
285.125	1
285.502	1.06
285.879	1.03
286.256	1.02
286.633	1.13
287.009	1.17
287.386	1.23
287.763	1.28
288.139	1.31
288.516	1.39
288.893	1.37
289.269	1.42
289.646	1.45
290.022	1.56
290.399	1.58
290.775	1.54
291.152	1.56
291.528	1.54
291.904	1.48
292.281	1.46
292.657	1.47
293.033	1.48
293.41	1.5
293.786	1.53
294.162	1.57
294.538	1.61
294.914	1.66
295.29	1.73
295.666	1.79
296.042	1.86
296.418	1.98
296.794	1.99
297.17	2.08
297.546	2.14
297.921	2.21
298.297	2.26
298.673	2.31
299.048	2.38
299.424	2.41
299.8	2.47
300.175	2.55
300.551	2.6
300.926	2.7
301.302	2.75
301.677	2.81
302.053	2.86
302.428	2.94
302.803	3.02
303.179	3.1
303.554	3.17
303.929	3.24
304.304	3.33
304.68	3.39
305.055	3.44
305.43	3.48
305.805	3.54
306.18	3.56
306.555	3.59
306.93	3.62
307.305	3.62
307.679	3.66
308.054	3.68
308.429	3.66
308.804	3.68
309.179	3.72
309.553	3.75
309.928	3.77
310.303	3.87
310.677	3.91
311.052	3.95
311.426	3.99
311.801	4.02
312.175	4.09
312.55	4.16
312.924	4.2
313.298	4.22
313.673	4.27
314.047	4.31
314.421	4.28
314.795	4.33
315.17	4.35
315.544	4.38
315.918	4.43
316.292	4.46
316.666	4.51
317.04	4.56
317.414	4.63
317.788	4.68
318.162	4.77
318.535	4.92
318.909	4.98
319.283	5.11
319.657	5.23
320.03	5.37
320.404	5.48
320.778	5.75
321.151	6.08
321.525	6.47
321.898	6.97
322.272	7.41
322.645	8.01
323.019	8.65
323.392	9.34
323.765	10.18
324.139	11.01
324.512	11.97
324.885	12.94
325.258	13.86
325.632	14.62
326.005	15.31
326.378	15.87
326.751	16.33
327.124	16.61
327.497	16.83
327.87	17.11
328.243	17.29
328.616	17.43
328.988	17.54
329.361	17.63
329.734	17.68
330.107	17.71
330.479	17.61
330.852	17.49
331.225	17.48
331.597	17.4
331.97	17.24
332.342	17.09
332.715	17.01
333.087	16.82
333.46	16.69
333.832	16.67
334.204	16.64
334.577	16.65
334.949	16.64
335.321	16.61
335.693	16.52
336.065	16.4
336.438	16.26
336.81	16.15
337.182	16.03
337.554	15.88
337.926	15.79
338.298	15.64
338.669	15.53
339.041	15.47
339.413	15.41
339.785	15.41
340.157	15.36
340.528	15.35
340.9	15.3
341.272	15.24
341.643	15.22
342.015	15.24
342.386	15.32
342.758	15.46
343.129	15.65
343.501	15.71
343.872	15.79
344.243	15.78
344.615	15.76
344.986	15.63
345.357	15.65
345.728	15.68
346.099	15.7
346.471	15.68
346.842	15.71
347.213	15.7
347.584	15.67
347.955	15.68
348.326	15.66
348.697	15.65
349.067	15.65
349.438	15.67
349.809	15.75
350.18	15.9
350.55	15.95
350.921	16.02
351.292	16.1
351.662	16.14
352.033	16.18
352.403	16.21
352.774	16.25
353.144	16.27
353.515	16.28
353.885	16.27
354.255	16.24
354.626	16.25
354.996	16.26
355.366	16.24
355.736	16.26
356.107	16.25
356.477	16.28
356.847	16.32
357.217	16.34
357.587	16.36
357.957	16.39
358.327	16.42
358.697	16.42
359.066	16.44
359.436	16.47
359.806	16.48
360.176	16.53
360.546	16.53
360.915	16.53
361.285	16.54
361.654	16.54
362.024	16.52
362.393	16.52
362.763	16.57
363.132	16.54
363.502	16.52
363.871	16.54
364.24	16.53
364.61	16.54
364.979	16.58
365.348	16.6
365.717	16.64
366.087	16.67
366.456	16.7
366.825	16.68
367.194	16.73
367.563	16.76
367.932	16.78
368.301	16.84
368.669	16.91
369.038	16.88
369.407	16.88
369.776	16.87
370.145	16.86
370.513	16.88
370.882	16.88
371.25	16.88
371.619	16.84
371.988	16.78
372.356	16.77
372.724	16.73
373.093	16.75
373.461	16.75
373.83	16.73
374.198	16.72
374.566	16.69
374.934	16.66
375.303	16.66
375.671	16.67
376.039	16.68
376.407	16.67
376.775	16.65
377.143	16.65
377.511	16.65
377.879	16.65
378.247	16.67
378.615	16.69
378.982	16.72
379.35	16.73
379.718	16.73
380.086	16.76
380.453	16.77
380.821	16.78
381.188	16.75
381.556	16.77
381.923	16.82
382.291	16.83
382.658	16.84
383.026	16.83
383.393	16.84
383.76	16.88
384.128	16.9
384.495	16.89
384.862	16.89
385.229	16.91
385.596	16.89
385.963	16.88
386.33	16.86
386.697	16.86
387.064	16.84
387.431	16.82
387.798	16.77
388.165	16.74
388.532	16.73
388.899	16.73
389.265	16.71
389.632	16.7
389.999	16.69
390.365	16.69
390.732	16.7
391.098	16.72
391.465	16.73
391.831	16.74
392.198	16.76
392.564	16.76
392.93	16.76
393.297	16.79
393.663	16.82
394.029	16.84
394.395	16.88
394.762	16.9
395.128	16.91
395.494	16.94
395.86	17
396.226	17.04
396.592	17.08
396.958	17.12
397.323	17.15
397.689	17.2
398.055	17.23
398.421	17.28
398.787	17.32
399.152	17.38
399.518	17.42
399.883	17.43
400.249	17.47
400.615	17.51
400.98	17.54
401.345	17.56
401.711	17.56
402.076	17.56
402.442	17.55
402.807	17.56
403.172	17.54
403.537	17.52
403.902	17.53
404.268	17.52
404.633	17.52
404.998	17.52
405.363	17.51
405.728	17.54
406.093	17.57
406.457	17.6
406.822	17.63
407.187	17.67
407.552	17.74
407.917	17.76
408.281	17.77
408.646	17.8
409.011	17.85
409.375	17.91
409.74	17.91
410.104	17.92
410.469	17.9
410.833	17.92
411.197	17.93
411.562	17.91
411.926	17.94
412.29	17.99
412.655	18.02
413.019	18.02
413.383	18.02
413.747	18.05
414.111	18.08
414.475	18.14
414.839	18.18
415.203	18.24
415.567	18.28
415.931	18.32
416.295	18.33
416.658	18.34
417.022	18.38
417.386	18.41
417.749	18.41
418.113	18.41
418.477	18.42
418.84	18.41
419.204	18.4
419.567	18.4
419.931	18.42
420.294	18.45
420.657	18.48
421.021	18.49
421.384	18.51
421.747	18.57
422.11	18.62
422.473	18.63
422.836	18.65
423.199	18.68
423.562	18.74
423.925	18.76
424.288	18.77
424.651	18.79
425.014	18.82
425.377	18.83
425.74	18.84
426.102	18.86
426.465	18.92
426.828	18.96
427.19	18.98
427.553	18.98
427.916	18.99
428.278	19
428.641	18.98
429.003	18.98
429.365	18.97
429.728	18.97
430.09	18.96
430.452	18.93
430.814	18.92
431.177	18.92
431.539	18.9
431.901	18.88
432.263	18.91
432.625	18.93
432.987	18.96
433.349	19
433.711	19.04
434.072	19.09
434.434	19.15
434.796	19.18
435.158	19.23
435.519	19.3
435.881	19.35
436.243	19.35
436.604	19.38
436.966	19.4
437.327	19.4
437.689	19.4
438.05	19.39
438.411	19.39
438.773	19.42
439.134	19.42
439.495	19.42
439.856	19.42
440.218	19.44
440.579	19.45
440.94	19.47
441.301	19.49
441.662	19.52
442.023	19.56
442.384	19.58
442.745	19.58
443.105	19.55
443.466	19.59
443.827	19.61
444.188	19.62
444.548	19.65
444.909	19.64
445.269	19.66
445.63	19.62
445.99	19.6
446.351	19.6
446.711	19.6
447.072	19.65
447.432	19.65
447.792	19.64
448.153	19.65
448.513	19.66
448.873	19.68
449.233	19.67
449.593	19.69
449.953	19.69
450.313	19.68
450.673	19.7
451.033	19.7
451.393	19.69
451.753	19.73
452.113	20.26
452.472	20.24
452.832	20.21
453.192	20.16
453.551	20.14
453.911	20.1
454.271	20.05
454.63	20
454.989	19.96
455.349	19.92
455.708	19.89
456.068	19.62
456.427	19.62
456.786	19.65
457.145	19.7
457.505	19.74
457.864	19.81
458.223	19.88
458.582	19.96
458.941	20.04
459.3	20.11
459.659	20.16
460.018	20.19
460.376	20.23
460.735	20.26
461.094	20.27
461.453	20.27
461.811	20.25
462.17	20.25
462.529	20.22
462.887	20.2
463.246	20.19
463.604	20.18
463.963	20.19
464.321	20.1
464.679	20.09
465.038	20.09
465.396	20.08
465.754	20.12
466.112	20.14
466.47	20.19
466.828	20.21
467.186	20.23
467.544	20.25
467.902	20.26
468.26	20.37
468.618	20.37
468.976	20.39
469.334	20.4
469.692	20.36
470.049	20.31
470.407	20.27
470.765	20.23
471.122	20.22
471.48	20.23
471.837	20.24
472.195	20.28
472.552	20.29
472.909	20.3
473.267	20.3
473.624	20.31
473.981	20.35
474.338	20.34
474.696	20.33
475.053	20.35
475.41	20.32
475.767	20.32
476.124	20.28
476.481	20.28
476.838	20.26
477.194	20.24
477.551	20.26
477.908	20.24
478.265	20.24
478.621	20.24
478.978	20.21
479.335	20.25
479.691	20.25
480.048	20.27
480.404	20.26
480.761	20.27
481.117	20.28
481.473	20.26
481.83	20.25
482.186	20.24
482.542	20.23
482.898	20.21
483.255	20.18
483.611	20.17
483.967	20.16
484.323	20.13
484.679	20.13
485.035	20.12
485.39	20.11
485.746	20.1
486.102	20.12
486.458	20.13
486.814	20.15
487.169	20.15
487.525	20.13
487.88	20.12
488.236	20.12
488.591	20.11
488.947	20.09
489.302	20.07
489.658	20.05
490.013	20.04
490.368	20.01
490.723	19.99
491.079	19.97
491.434	19.96
491.789	19.96
492.144	19.96
492.499	19.96
492.854	19.96
493.209	19.98
493.564	20
493.919	19.97
494.273	19.98
494.628	19.96
494.983	19.99
495.338	19.97
495.692	19.97
496.047	19.96
496.401	19.94
496.756	19.91
497.11	19.88
497.465	19.83
497.819	19.82
498.173	19.78
498.528	19.78
498.882	19.74
499.236	19.72
499.59	19.71
499.944	19.71
500.298	19.72
500.652	19.72
501.006	19.71
501.36	19.72
501.714	19.7
502.068	19.7
502.422	19.72
502.776	19.76
503.129	19.79
503.483	19.82
503.837	19.85
504.19	19.88
504.544	19.89
504.897	19.89
505.251	19.89
505.604	19.9
505.958	19.88
506.311	19.84
506.664	19.78
507.017	19.73
507.371	19.67
507.724	19.6
508.077	19.54
508.43	19.52
508.783	19.52
509.136	19.52
509.489	19.51
509.842	19.49
510.195	19.47
510.547	19.46
510.9	19.44
511.253	19.4
511.606	19.35
511.958	19.3
512.311	19.26
512.663	19.18
513.016	19.12
513.368	19.06
513.721	19.01
514.073	18.98
514.425	18.94
514.778	18.92
515.13	18.91
515.482	18.89
515.834	18.89
516.186	18.87
516.538	18.89
516.89	18.92
517.242	18.96
517.594	18.98
517.946	19.02
518.298	19.03
518.65	19.03
519.001	19.02
519.353	19.02
519.705	18.99
520.056	18.95
520.408	18.92
520.759	18.87
521.111	18.82
521.462	18.78
521.814	18.73
522.165	18.71
522.516	18.68
522.868	18.65
523.219	18.61
523.57	18.59
523.921	18.56
524.272	18.52
524.623	18.48
524.974	18.4
525.325	18.37
525.676	18.32
526.027	18.29
526.378	18.24
526.728	18.17
527.079	18.16
527.43	18.15
527.78	18.11
528.131	18.07
528.481	18.04
528.832	18.03
529.182	17.99
529.533	17.96
529.883	17.9
530.233	17.9
530.584	17.89
530.934	17.86
531.284	17.8
531.634	17.77
531.984	17.75
532.334	17.71
532.684	17.67
533.034	17.66
533.384	17.67
533.734	17.62
534.084	17.56
534.434	17.51
534.783	17.47
535.133	17.42
535.483	17.4
535.832	17.36
536.182	17.3
536.531	17.25
536.881	17.19
537.23	17.13
537.58	17.11
537.929	17.09
538.278	18.28
538.628	18.25
538.977	18.21
539.326	18.17
539.675	18.13
540.024	18.11
540.373	18.1
540.722	18.08
541.071	18.03
541.42	18
541.769	17.96
542.117	16.69
542.466	16.66
542.815	16.61
543.163	16.54
543.512	16.47
543.861	16.44
544.209	16.4
544.558	16.34
544.906	16.3
545.254	16.24
545.603	16.2
545.951	16.19
546.299	16.21
546.647	16.23
546.996	16.24
547.344	16.25
547.692	16.22
548.04	16.2
548.388	16.21
548.736	16.18
549.083	16.16
549.431	16.13
549.779	16.11
550.127	16.01
550.475	15.94
550.822	15.87
551.17	15.81
551.517	15.8
551.865	15.75
552.212	15.7
552.56	15.7
552.907	15.68
553.254	15.67
553.602	15.62
553.949	15.61
554.296	15.56
554.643	15.53
554.99	15.49
555.337	15.43
555.684	15.41
556.031	15.37
556.378	15.3
556.725	15.22
557.072	15.15
557.419	15.13
557.765	15.07
558.112	15.05
558.459	15.03
558.805	14.98
559.152	14.92
559.498	14.86
559.845	14.8
560.191	14.75
560.538	14.73
560.884	14.71
561.23	14.63
561.576	14.57
561.923	14.5
562.269	14.44
562.615	14.38
562.961	14.34
563.307	14.31
563.653	14.3
563.999	14.27
564.344	14.2
564.69	14.13
565.036	14.1
565.382	14.04
565.727	14.03
566.073	14
566.419	13.98
566.764	13.96
567.11	13.95
567.455	13.85
567.8	13.81
568.146	13.82
568.491	13.78
568.836	13.72
569.181	13.69
569.527	13.63
569.872	13.56
570.217	13.51
570.562	13.46
570.907	13.39
571.252	13.39
571.597	13.34
571.941	13.29
572.286	13.25
572.631	13.25
572.976	13.26
573.32	13.26
573.665	13.24
574.009	13.25
574.354	13.25
574.698	13.24
575.043	13.23
575.387	13.22
575.731	13.2
576.076	13.19
576.42	13.17
576.764	13.15
577.108	13.14
577.452	13.13
577.796	13.06
578.14	13.03
578.484	12.97
578.828	12.93
579.172	12.92
579.516	12.91
579.86	12.91
580.203	12.87
580.547	12.86
580.891	12.81
581.234	12.79
581.578	12.74
581.921	12.71
582.264	12.68
582.608	12.67
582.951	12.66
583.294	12.64
583.638	12.62
583.981	12.6
584.324	12.58
584.667	12.55
585.01	12.55
585.353	12.54
585.696	12.55
586.039	12.56
586.382	12.54
586.725	12.53
587.067	12.48
587.41	12.47
587.753	12.47
588.095	12.46
588.438	12.45
588.781	12.45
589.123	12.4
589.465	12.39
589.808	12.38
590.15	12.37
590.492	12.35
590.835	12.33
591.177	12.29
591.519	12.25
591.861	12.25
592.203	12.25
592.545	12.25
592.887	12.24
593.229	12.19
593.571	12.17
593.913	12.16
594.254	12.13
594.596	12.13
594.938	12.13
595.279	12.11
595.621	12.08
595.963	12.08
596.304	12.01
596.645	12.01
596.987	12
597.328	12
597.669	11.99
598.011	11.95
598.352	11.94
598.693	11.94
599.034	11.93
599.375	11.91
599.716	11.88
600.057	11.87
600.398	11.84
600.739	11.83
601.08	11.87
601.42	11.87
601.761	11.86
602.102	11.87
602.442	11.87
602.783	11.86
603.123	11.83
603.464	11.81
603.804	11.81
604.145	11.76
604.485	11.75
604.825	11.72
605.166	11.68
605.506	11.68
605.846	11.68
606.186	11.68
606.526	11.67
606.866	11.67
607.206	11.62
607.546	11.54
607.886	11.54
608.225	11.5
608.565	11.44
608.905	11.37
609.245	11.34
609.584	11.28
609.924	11.25
610.263	11.23
610.603	11.22
610.942	11.21
611.281	11.19
611.621	11.18
611.96	11.18
612.299	11.21
612.638	11.23
612.978	11.21
613.317	11.19
613.656	11.18
613.995	11.15
614.334	11.15
614.672	11.15
615.011	11.14
615.35	11.13
615.689	11.13
616.027	11.14
616.366	11.15
616.705	11.15
617.043	11.14
617.382	11.12
617.72	11.11
618.059	11.05
618.397	11.04
618.735	11.02
619.073	11.02
619.412	11.02
619.75	11.02
620.088	10.97
620.426	10.92
620.764	10.9
621.102	10.88
621.44	10.87
621.778	10.83
622.115	10.8
622.453	10.8
622.791	10.81
623.129	10.8
623.466	10.7
623.804	10.64
624.141	10.63
624.479	10.62
624.816	10.56
625.153	10.55
625.491	10.55
625.828	10.49
626.165	10.5
626.502	10.45
626.84	10.42
627.177	10.37
627.514	10.36
627.851	10.31
628.188	10.28
628.524	10.18
628.861	10.17
629.198	10.18
629.535	10.18
629.871	10.14
630.208	10.16
630.545	10.13
630.881	10.06
631.218	10.01
631.554	10.01
631.89	9.99
632.227	10.03
632.563	10.05
632.899	10
633.235	9.94
633.572	9.9
633.908	9.83
634.244	9.85
634.58	9.82
634.916	9.81
635.251	9.81
635.587	9.79
635.923	9.77
636.259	9.73
636.595	9.71
636.93	9.72
637.266	9.72
637.601	9.69
637.937	9.59
638.272	9.56
638.608	9.55
638.943	9.46
639.278	9.41
639.613	9.33
639.949	9.27
640.284	9.22
640.619	9.23
640.954	9.21
641.289	9.2
641.624	9.21
641.959	9.26
642.294	9.18
642.628	9.17
642.963	9.23
643.298	9.2
643.632	9.29
643.967	9.28
644.302	9.22
644.636	9.21
644.971	9.15
645.305	9.15
645.639	9.09
645.974	9.1
646.308	9.08
646.642	9
646.976	9.01
647.31	8.86
647.644	8.82
647.978	8.81
648.312	8.74
648.646	8.77
648.98	8.73
649.314	8.68
649.647	8.57
649.981	8.52
650.315	8.45
650.648	8.39
650.982	8.39
651.315	8.39
651.649	8.36
651.982	8.3
652.316	8.24
652.649	8.26
652.982	8.27
653.315	8.29
653.648	8.31
653.982	8.33
654.315	8.32
654.648	8.31
654.981	8.29
655.313	8.27
655.646	8.32
655.979	8.3
656.312	8.27
656.644	8.24
656.977	8.18
657.31	8.06
657.642	8.03
657.975	8.02
658.307	8.01
658.64	7.95
658.972	7.87
659.304	7.85
659.636	7.83
659.969	7.77
660.301	7.67
660.633	7.7
660.965	7.75
661.297	7.8
661.629	7.78
661.961	7.73
662.292	7.76
662.624	7.77
662.956	7.72
663.288	7.73
663.619	7.76
663.951	7.83
664.282	7.78
664.614	7.77
664.945	7.64
665.276	7.61
665.608	7.59
665.939	7.56
666.27	7.5
666.601	7.47
666.933	7.4
667.264	7.36
667.595	7.33
667.926	7.34
668.256	7.33
668.587	7.39
668.918	7.38
669.249	7.33
669.58	7.38
669.91	7.42
670.241	7.39
670.571	7.42
670.902	7.35
671.232	7.38
671.563	7.36
671.893	7.35
672.223	7.24
672.554	7.24
672.884	7.28
673.214	7.21
673.544	7.15
673.874	7.15
674.204	7.13
674.534	7.09
674.864	7.05
675.194	7.03
675.524	6.98
675.853	7.07
676.183	7.05
676.513	7.05
676.842	7.04
677.172	7.07
677.501	7.09
677.831	7.09
678.16	7.14
678.489	7.16
678.819	7.19
679.148	7.26
679.477	7.28
679.806	7.22
680.135	7.1
680.464	7.08
680.793	7.05
681.122	6.98
681.451	6.94
681.78	6.84
682.108	6.8
682.437	6.63
682.766	6.52
683.094	6.48
683.423	6.5
683.751	6.52
684.08	6.43
684.408	6.42
684.737	6.44
685.065	6.36
685.393	6.53
685.721	6.46
686.049	6.54
686.377	6.52
686.705	6.43
687.033	6.39
687.361	6.36
687.689	6.44
688.017	6.44
688.345	6.4
688.673	6.49
689.0	6.43
689.328	6.47
689.655	6.55
689.983	6.61
690.31	6.66
690.638	6.73
690.965	6.72
691.292	6.77
691.62	6.81
691.947	6.77
692.274	6.71
692.601	6.65
692.928	6.68
693.255	6.63
693.582	6.65
693.909	6.65
694.236	6.57
694.562	6.53
694.889	6.52
695.216	6.53
695.542	6.66
695.869	6.58
696.196	6.59
696.522	6.48
696.848	6.47
697.175	6.35
697.501	6.3
697.827	6.31
698.154	6.31
698.48	6.29
698.806	6.27
699.132	6.25
699.458	6.31
699.784	6.31
700.11	6.25
700.435	6.29
700.761	6.33
701.087	6.29
701.413	6.33
701.738	6.31
702.064	6.26
702.389	6.24
702.715	6.14
703.04	6.14
703.366	6.12
703.691	6.15
704.016	6.03
704.341	6.03
704.666	6.01
704.992	5.96
705.317	6.13
705.642	6.17
705.967	6.18
706.291	6.05
706.616	6.04
706.941	6.17
707.266	6.24
707.59	6.16
707.915	6.29
708.24	6.28
708.564	6.15
708.889	6.02
709.213	5.84
709.537	5.59
709.862	5.61
710.186	5.69
710.51	5.4
710.834	5.27
711.158	5.32
711.482	5.15
711.806	5.25
712.13	5.35
712.454	5.36
712.778	5.52
713.102	5.65
713.426	5.7
713.749	5.62
714.073	5.75
714.396	5.87
714.72	5.98
715.043	5.94
715.367	5.95
715.69	5.9
716.013	5.81
716.337	5.81
716.66	5.91
716.983	6
717.306	6.02
717.629	5.9
717.952	5.89
718.275	5.78
718.598	5.61
718.921	5.51
719.243	5.68
719.566	5.76
719.889	5.91
720.211	5.84
720.534	5.8
720.856	5.79
721.179	5.95
721.501	6
721.823	6.1
722.146	6.25
722.468	6.32
722.79	6.19
723.112	6.1
723.434	5.81
723.756	5.82
724.078	5.91
724.4	5.84
724.722	5.79
725.044	5.88
725.366	5.77
725.687	5.85
726.009	5.76
726.33	5.79
726.652	5.81
726.973	5.88
727.295	6.01
727.616	5.93
727.938	6.02
728.259	6.11
728.58	5.93
728.901	6.14
729.222	6.18
729.543	6.35
729.864	6.27
730.185	6.36
730.506	6.15
730.827	6.18
731.148	6.14
731.468	6.02
731.789	5.83
732.11	5.86
732.43	5.75
732.751	5.73
733.071	5.39
733.392	5.26
733.712	5.22
734.032	5.44
734.352	5.2
734.673	4.92
734.993	4.84
735.313	4.95
735.633	5.3
735.953	5.06
736.273	4.97
736.593	4.98
736.912	4.93
737.232	4.98
737.552	4.71
737.871	4.67
738.191	5.09
738.51	5.45
738.83	5.48
739.149	5.02
739.469	5.33
739.788	5.76
740.107	6.04
740.426	6.43
740.746	6.34
741.065	6.49
741.384	6.44
741.703	6.33
742.022	6.1
742.341	6.15
742.659	6.3
742.978	6.09
743.297	5.53
743.615	5.4
743.934	5.04
744.253	5.17
744.571	5.3
744.89	5.22
745.208	5.22
745.526	5.29
745.845	5.15
746.163	5.2
746.481	5.44
746.799	5.56
747.117	5.43
747.435	5.61
747.753	5.49
748.071	5.42
748.389	5.67
748.706	5.45
749.024	5.29
749.342	5.26
749.659	5.3
749.977	4.84
750.295	4.88
750.612	4.75
750.929	4.75
751.247	5.01
751.564	4.95
751.881	4.87
752.198	5.31
752.516	5.49
752.833	5.78
753.15	5.56
753.467	5.76
753.783	5.66
754.1	6.3
754.417	6.19
754.734	5.85
755.05	6.02
755.367	6
755.684	5.75
756.0	5.73
756.317	5.38
756.633	5.51
756.949	5.73
757.266	5.8
757.582	5.38
757.898	5.51
758.214	5.69
758.53	5.51
758.846	5.76
759.162	5.78
759.478	5.44
759.794	5.33
760.11	5.31
760.426	5.08
760.741	5.19
761.057	5.19
761.372	5.01
761.688	4.76
762.003	4.8
762.319	4.59
762.634	4.55
762.949	4.55
763.265	4.66
763.58	4.78
763.895	4.67
764.21	4.43
764.525	4.45
764.84	4.55
765.155	4.55
765.47	4.56
765.785	4.58
766.099	4.67
766.414	4.8
766.729	4.85
767.043	4.62
767.358	4.69
767.672	4.91
767.987	4.83
768.301	5.13
768.615	5.11
768.929	5.22
769.244	5.19
769.558	5.12
769.872	5.26
770.186	5.11
770.5	4.98
770.814	4.82
771.127	4.52
771.441	4.18
771.755	3.59
772.069	3.54
772.382	3.68
772.696	3.91
773.009	3.64
773.323	3.52
773.636	3.7
773.95	3.65
774.263	4.22
774.576	4.53
774.889	5.42
775.202	5.85
775.515	6.25
775.828	5.99
776.141	5.78
776.454	6
776.767	5.68
777.08	5.69
777.393	6.21
777.705	6.03
778.018	5.62
778.33	5.13
778.643	4.73
778.955	4.62
779.268	5.05
779.58	5.19
779.892	5.25
780.205	5.75
780.517	6.35
780.829	6.45
781.141	6.57
781.453	6.94
781.765	6.93
782.077	6.76
782.388	6.53
782.7	5.69
783.012	6.09
783.324	5.95
783.635	6.21
783.947	5.46
784.258	5.26
784.57	5.51
784.881	5.02
785.192	6.07
785.504	6.7
785.815	6.91
786.126	7.15
786.437	6.73
786.748	6.57
787.059	6.35
787.37	6.45
787.681	5.99
787.992	5.66
788.302	6.37
788.613	5.4
788.924	5.02
789.234	4.91
789.545	4.94
789.855	4.75
790.166	4.87
790.476	4.36
790.786	3.71
791.096	3.44
791.407	3.25
791.717	2.78
792.027	2.54
792.337	2.51
792.647	2.44
792.957	2.31
793.266	2.17
793.576	2.37
793.886	2.85
794.196	3.79
794.505	8.3
794.815	8.28
795.124	8.55
795.434	9.29
795.743	9.64
796.052	9.67
796.362	9.69
796.671	10.34
796.98	10.44
797.289	10.1
797.598	9.32
797.907	5.36
798.216	5.45
798.525	5.45
798.834	4.35
799.142	4.29
799.451	4.65
799.76	4.71
800.068	4.35
800.377	4.06
800.685	4.32
800.994	4.65
801.302	4.03
801.61	4.08
801.918	3.58
802.227	3.88
802.535	3.39
802.843	3.16
803.151	2.81
803.459	2.53
803.767	2.28
804.074	2.38
804.382	2.58
804.69	4.55
804.998	4.22
805.305	4.93
805.613	5.39
805.92	5.66
806.228	5.41
806.535	5.39
806.842	5.11
807.15	4.78
807.457	4.26
807.764	4.31
808.071	2
808.378	3.14
808.685	3.14
808.992	2.96
809.299	2.36
809.605	3.1
809.912	4.26
810.219	4.56
810.525	5.94
810.832	6.58
811.138	6.57
811.445	8.12
811.751	7.47
812.058	7.06
812.364	7.45
812.67	8.41
812.976	7.68
813.282	7.61
813.588	7.7
813.894	7.41
814.2	7.37
814.506	7.56
814.812	7.19
815.118	6.54
815.423	6.95
815.729	5.94
816.035	5.4
816.34	5.94
816.646	5.07
816.951	5
817.256	3.54
817.562	4
817.867	3.93
818.172	3.9
818.477	3.5
818.782	3.48
819.087	4.55
819.392	4.62
819.697	4.49
820.002	4.62
820.306	5.07
820.611	5.93
820.916	5.42
821.22	5.84
821.525	5.81
821.829	6.34
822.134	5.89
822.438	5.87
822.742	5.79
823.047	5.74
823.351	5.7
823.655	5.38
823.959	5.32
824.263	5.09
824.567	4.96
824.871	4.86
825.174	4.66
825.478	5.58
825.782	5.32
826.086	5.21
826.389	5.3
826.693	5.21
826.996	5.1
827.3	5.05
827.603	5.37
827.906	5.33
828.209	5.26
828.513	5.3
828.816	4.38
829.119	4.32
829.422	4.47
829.725	4.31
830.028	4.59
830.33	5.1
830.633	5.51
830.936	5.21
831.238	5.37
831.541	5.8
831.844	5.74
832.146	5.04
832.448	5.55
832.751	5.64
833.053	5.82
833.355	6.23
833.657	6.13
833.96	5.92
834.262	5.79
834.564	5.5
834.865	5
835.167	6.58
835.469	7.06
835.771	6.18
836.073	5.96
836.374	5.73
836.676	4.89
836.977	4.75
837.279	4.9
837.58	5.67
837.882	6.27
838.183	6.16
838.484	4.44
838.785	4.82
839.086	5.35
839.387	5.35
839.688	5.71
839.989	6.11
840.29	6.11
840.591	5.61
840.892	5.13
841.192	4.9
841.493	4.99
841.794	5.4
842.094	4.85
842.394	5.05
842.695	2.57
842.995	1.64
843.295	1.28
843.596	0.26
843.896	0.62
844.196	1.03
844.496	1.03
844.796	1.03
845.096	1.03
845.396	1.03
845.695	1.03
845.995	3.44
846.295	3.8
846.594	6.25
846.894	8.78
847.194	7.33
847.493	7.92
847.792	8.85
848.092	10.62
848.391	10.87
848.69	12.84
848.989	12.53
849.288	11.67
849.587	11.89
849.886	9.72
850.185	8.97
850.484	11.91
850.783	12.24
851.081	13.51
851.38	12.93
851.679	12.31
851.977	11.39
852.276	10.75
852.574	11.54
852.872	11.66
853.171	11.58
853.469	10.4
853.767	7.65
854.065	5.13
854.363	4.01
854.661	5.6
854.959	6.63
855.257	6.7
855.555	8.97
855.853	7.85
856.15	8.02
856.448	8.23
856.746	9.37
857.043	9.62
857.341	14.01
857.638	18.85
857.935	16.86
858.233	15.85
858.53	17.5
858.827	17.52
859.124	18.48
859.421	18.28
859.718	19.02
860.015	17.51
860.312	16.12
860.609	12.32
860.905	9.06
861.202	9.75
861.499	7.2
861.795	9.47
862.092	9.39
862.388	9.4
862.684	7.62
862.981	5.37
863.277	7.12
863.573	9.77
863.869	10.15
864.165	4.34
864.461	1.52
864.757	5.39
865.053	5.39
865.349	5.39
865.645	5.39
865.94	5.39
866.236	5.39
866.532	5.39
866.827	5.39
867.123	5.39
867.418	6.65
867.713	9.19
868.009	8.36
868.304	9.47
868.599	10.93
868.894	11.63
869.189	12.97
869.484	15.47
869.779	16.26
870.074	14.4
870.369	16.58
870.663	15.72
870.958	13.89
871.252	14.49
871.547	16.35
871.842	15.28
872.136	16.97
872.43	14.81
872.725	14.55
873.019	12.02
873.313	13.1
873.607	9.98
873.901	7.93
874.195	9.74
874.489	12.23
874.783	11.76
875.077	11.42
875.37	7.57
875.664	8.66
875.958	6.64
876.251	9.67
876.545	10.71
876.838	9.83
877.132	10.56
877.425	13.26
877.718	10.76
878.011	11.75
878.305	13.29
878.598	16.12
878.891	14.51
879.184	17.46
879.476	18.85
879.769	17.48
880.062	16.75
880.355	16.12
880.647	12.54
880.94	10.47
881.232	9.34
881.525	8.27
881.817	6.21
882.11	8.15
882.402	5.4
882.694	3.38
882.986	3.45
883.278	5.37
883.57	6.92
883.862	7.6
884.154	8.17
884.446	7.84
884.738	7.65
885.03	8.32
885.321	7.61
885.613	8.27
885.904	8.85
886.196	9.42
886.487	9.47
886.779	8.52
887.07	8.54
887.361	8.67
887.652	9.07
887.943	9.12
888.234	9.76
888.525	10.61
888.816	10.56
889.107	10.77
889.398	12.12
889.689	12.9
889.979	14.64
890.27	14.8
890.56	15.62
890.851	16.34
891.141	18.52
891.432	17.1
891.722	18.09
