Data from groin2_Reflection__2__15-06-59-209.txt Node

Date: Thu Aug 04 15:06:59 AEST 2022
User: kathy
Spectrometer: JAZA2503
Trigger mode: 0
Integration Time (sec): 2.439700E-1
Scans to average: 10
Electric dark correction enabled: true
Nonlinearity correction enabled: true
Boxcar width: 5
XAxis mode: Wavelengths
Number of Pixels in Spectrum: 2048
>>>>>Begin Spectral Data<<<<<
189.467	31.96
189.852	9.45
190.237	34.9
190.622	87.1
191.007	63.97
191.392	42.34
191.777	46.69
192.162	77.72
192.546	192.47
192.931	1020.83
193.316	-147.01
193.701	149.11
194.086	87.74
194.47	84.15
194.855	-1591.74
195.24	222.22
195.624	32.14
196.009	41.85
196.393	69.26
196.778	83.86
197.163	123.72
197.547	95.86
197.931	57.1
198.316	42.29
198.7	45.11
199.085	48.41
199.469	55.32
199.853	56.22
200.237	46.85
200.622	46.96
201.006	48.14
201.39	39.8
201.774	34.28
202.158	40.1
202.542	41.71
202.926	29.3
203.31	30.87
203.694	23.99
204.078	16.51
204.462	25.38
204.846	23.22
205.23	17.72
205.614	17.64
205.998	20.52
206.381	22.61
206.765	26.42
207.149	31.24
207.532	30.03
207.916	31.51
208.3	30.26
208.683	31.17
209.067	33.1
209.45	37.1
209.834	36.63
210.217	35.42
210.601	28.24
210.984	25.7
211.367	30.7
211.751	26.82
212.134	22.38
212.517	25.55
212.901	26.05
213.284	25.51
213.667	28.42
214.05	26.3
214.433	24.27
214.816	26.08
215.199	24
215.582	20.44
215.965	17.81
216.348	23.88
216.731	18.03
217.114	7.18
217.497	3.62
217.88	-2.7
218.262	-5.52
218.645	-8.69
219.028	-7.94
219.411	-8.26
219.793	-5.97
220.176	-4.34
220.559	-4.1
220.941	-3.58
221.324	1.97
221.706	6.83
222.089	11.86
222.471	13.67
222.853	12.54
223.236	14.61
223.618	13.72
224	13.69
224.383	12.62
224.765	9.52
225.147	10.59
225.529	10.25
225.912	8.28
226.294	6.12
226.676	4.96
227.058	5.35
227.44	3.6
227.822	4.15
228.204	4.02
228.586	4.28
228.968	4.76
229.349	4.52
229.731	4.42
230.113	4.03
230.495	4.05
230.877	3.76
231.258	3.7
231.64	3.71
232.022	3.27
232.403	3.17
232.785	2.8
233.166	2.25
233.548	2.2
233.929	1.94
234.311	2.19
234.692	2.2
235.073	2.85
235.455	3.05
235.836	3.54
236.217	3.57
236.599	3.75
236.98	3.61
237.361	4.06
237.742	3.9
238.123	3.8
238.504	3.69
238.885	3.21
239.266	2.79
239.647	2.16
240.028	1.91
240.409	1.95
240.79	1.77
241.171	1.92
241.552	1.7
241.933	1.81
242.313	2.07
242.694	2.25
243.075	2.41
243.456	2.35
243.836	2.48
244.217	2.66
244.597	2.67
244.978	2.76
245.358	2.88
245.739	2.89
246.119	2.86
246.5	2.8
246.88	2.69
247.26	2.61
247.641	2.62
248.021	2.66
248.401	2.48
248.781	2.47
249.162	2.46
249.542	2.37
249.922	2.41
250.302	2.49
250.682	2.37
251.062	2.37
251.442	2.38
251.822	2.4
252.202	2.44
252.582	2.5
252.961	2.59
253.341	2.68
253.721	2.8
254.101	2.81
254.48	2.65
254.86	2.75
255.24	2.76
255.619	2.77
255.999	2.86
256.378	2.73
256.758	2.59
257.137	2.43
257.517	2.17
257.896	1.96
258.276	1.83
258.655	1.6
259.034	1.44
259.414	1.35
259.793	1.24
260.172	1.09
260.551	1.07
260.93	1.03
261.309	1
261.688	0.92
262.068	0.91
262.447	0.96
262.825	1.01
263.204	0.93
263.583	0.85
263.962	0.86
264.341	0.97
264.72	0.99
265.099	1.12
265.477	1.22
265.856	1.33
266.235	1.35
266.613	1.31
266.992	1.41
267.371	1.58
267.749	1.76
268.128	1.72
268.506	1.81
268.884	1.93
269.263	1.87
269.641	1.78
270.02	1.81
270.398	1.78
270.776	1.71
271.154	1.68
271.533	1.69
271.911	1.59
272.289	1.61
272.667	1.57
273.045	1.46
273.423	1.42
273.801	1.49
274.179	1.46
274.557	1.45
274.935	1.43
275.313	1.41
275.69	1.33
276.068	1.38
276.446	1.36
276.824	1.26
277.201	1.19
277.579	1.27
277.957	1.15
278.334	1.11
278.712	1.1
279.089	1.09
279.467	1.08
279.844	1.11
280.222	1.01
280.599	1.01
280.976	1.07
281.354	1.07
281.731	1.02
282.108	1.13
282.485	1.14
282.863	1.18
283.24	1.23
283.617	1.29
283.994	1.3
284.371	1.33
284.748	1.36
285.125	1.35
285.502	1.39
285.879	1.42
286.256	1.41
286.633	1.5
287.009	1.58
287.386	1.59
287.763	1.63
288.139	1.65
288.516	1.74
288.893	1.83
289.269	1.93
289.646	1.95
290.022	2.01
290.399	2.06
290.775	2.07
291.152	2.1
291.528	2.16
291.904	2.16
292.281	2.2
292.657	2.21
293.033	2.2
293.41	2.22
293.786	2.29
294.162	2.32
294.538	2.37
294.914	2.43
295.29	2.45
295.666	2.5
296.042	2.57
296.418	2.66
296.794	2.72
297.17	2.8
297.546	2.89
297.921	2.93
298.297	3.01
298.673	3.05
299.048	3.1
299.424	3.19
299.8	3.24
300.175	3.3
300.551	3.35
300.926	3.43
301.302	3.49
301.677	3.51
302.053	3.62
302.428	3.67
302.803	3.73
303.179	3.83
303.554	3.86
303.929	3.91
304.304	3.97
304.68	4.02
305.055	4.07
305.43	4.11
305.805	4.19
306.18	4.2
306.555	4.26
306.93	4.33
307.305	4.34
307.679	4.37
308.054	4.38
308.429	4.38
308.804	4.43
309.179	4.45
309.553	4.48
309.928	4.47
310.303	4.54
310.677	4.54
311.052	4.54
311.426	4.56
311.801	4.59
312.175	4.64
312.55	4.69
312.924	4.68
313.298	4.69
313.673	4.69
314.047	4.7
314.421	4.69
314.795	4.72
315.17	4.72
315.544	4.74
315.918	4.74
316.292	4.77
316.666	4.82
317.04	4.85
317.414	4.89
317.788	4.98
318.162	5.09
318.535	5.14
318.909	5.22
319.283	5.34
319.657	5.43
320.03	5.56
320.404	5.64
320.778	5.85
321.151	6.06
321.525	6.34
321.898	6.61
322.272	6.81
322.645	7.14
323.019	7.41
323.392	7.77
323.765	8.15
324.139	8.6
324.512	9.09
324.885	9.56
325.258	10.01
325.632	10.37
326.005	10.62
326.378	10.81
326.751	10.92
327.124	11.04
327.497	11.04
327.87	11.02
328.243	11.01
328.616	11.06
328.988	11.05
329.361	11.03
329.734	11.06
330.107	11.05
330.479	10.97
330.852	10.87
331.225	10.8
331.597	10.7
331.97	10.57
332.342	10.42
332.715	10.33
333.087	10.22
333.46	10.13
333.832	10.05
334.204	10.02
334.577	9.97
334.949	9.9
335.321	9.87
335.693	9.77
336.065	9.68
336.438	9.57
336.81	9.52
337.182	9.43
337.554	9.38
337.926	9.34
338.298	9.26
338.669	9.17
339.041	9.07
339.413	9
339.785	8.92
340.157	8.86
340.528	8.82
340.9	8.77
341.272	8.73
341.643	8.7
342.015	8.72
342.386	8.71
342.758	8.73
343.129	8.82
343.501	8.79
343.872	8.76
344.243	8.69
344.615	8.67
344.986	8.61
345.357	8.58
345.728	8.57
346.099	8.57
346.471	8.58
346.842	8.57
347.213	8.55
347.584	8.55
347.955	8.55
348.326	8.47
348.697	8.43
349.067	8.38
349.438	8.32
349.809	8.34
350.18	8.39
350.55	8.37
350.921	8.41
351.292	8.45
351.662	8.46
352.033	8.48
352.403	8.48
352.774	8.52
353.144	8.53
353.515	8.53
353.885	8.52
354.255	8.51
354.626	8.49
354.996	8.43
355.366	8.41
355.736	8.39
356.107	8.35
356.477	8.36
356.847	8.33
357.217	8.3
357.587	8.29
357.957	8.29
358.327	8.26
358.697	8.27
359.066	8.29
359.436	8.31
359.806	8.3
360.176	8.32
360.546	8.31
360.915	8.33
361.285	8.34
361.654	8.34
362.024	8.33
362.393	8.34
362.763	8.35
363.132	8.3
363.502	8.3
363.871	8.3
364.24	8.3
364.61	8.31
364.979	8.3
365.348	8.3
365.717	8.31
366.087	8.32
366.456	8.32
366.825	8.32
367.194	8.34
367.563	8.34
367.932	8.36
368.301	8.37
368.669	8.38
369.038	8.36
369.407	8.37
369.776	8.35
370.145	8.36
370.513	8.35
370.882	8.35
371.25	8.36
371.619	8.34
371.988	8.33
372.356	8.3
372.724	8.29
373.093	8.3
373.461	8.28
373.83	8.3
374.198	8.29
374.566	8.29
374.934	8.28
375.303	8.28
375.671	8.27
376.039	8.27
376.407	8.29
376.775	8.28
377.143	8.29
377.511	8.3
377.879	8.29
378.247	8.3
378.615	8.3
378.982	8.3
379.35	8.28
379.718	8.28
380.086	8.29
380.453	8.26
380.821	8.27
381.188	8.25
381.556	8.24
381.923	8.25
382.291	8.24
382.658	8.23
383.026	8.25
383.393	8.27
383.76	8.27
384.128	8.27
384.495	8.31
384.862	8.32
385.229	8.32
385.596	8.31
385.963	8.3
386.33	8.29
386.697	8.3
387.064	8.28
387.431	8.27
387.798	8.26
388.165	8.25
388.532	8.23
388.899	8.22
389.265	8.23
389.632	8.24
389.999	8.25
390.365	8.25
390.732	8.26
391.098	8.26
391.465	8.26
391.831	8.28
392.198	8.27
392.564	8.27
392.93	8.27
393.297	8.27
393.663	8.28
394.029	8.29
394.395	8.3
394.762	8.3
395.128	8.3
395.494	8.31
395.86	8.33
396.226	8.35
396.592	8.35
396.958	8.37
397.323	8.37
397.689	8.38
398.055	8.41
398.421	8.43
398.787	8.45
399.152	8.47
399.518	8.5
399.883	8.5
400.249	8.52
400.615	8.55
400.98	8.55
401.345	8.56
401.711	8.59
402.076	8.56
402.442	8.56
402.807	8.55
403.172	8.56
403.537	8.55
403.902	8.58
404.268	8.57
404.633	8.58
404.998	8.58
405.363	8.59
405.728	8.58
406.093	8.62
406.457	8.64
406.822	8.67
407.187	8.67
407.552	8.69
407.917	8.7
408.281	8.7
408.646	8.7
409.011	8.73
409.375	8.76
409.74	8.77
410.104	8.77
410.469	8.78
410.833	8.78
411.197	8.8
411.562	8.81
411.926	8.8
412.29	8.82
412.655	8.85
413.019	8.85
413.383	8.86
413.747	8.87
414.111	8.89
414.475	8.91
414.839	8.92
415.203	8.93
415.567	8.94
415.931	8.98
416.295	9
416.658	8.99
417.022	8.99
417.386	9
417.749	9
418.113	9
418.477	8.99
418.84	9
419.204	9.03
419.567	9.04
419.931	9.03
420.294	9.06
420.657	9.09
421.021	9.11
421.384	9.12
421.747	9.14
422.11	9.16
422.473	9.17
422.836	9.19
423.199	9.21
423.562	9.24
423.925	9.25
424.288	9.25
424.651	9.26
425.014	9.31
425.377	9.35
425.74	9.37
426.102	9.38
426.465	9.44
426.828	9.46
427.19	9.46
427.553	9.45
427.916	9.48
428.278	9.5
428.641	9.52
429.003	9.5
429.365	9.47
429.728	9.52
430.09	9.51
430.452	9.5
430.814	9.51
431.177	9.52
431.539	9.53
431.901	9.53
432.263	9.55
432.625	9.57
432.987	9.58
433.349	9.6
433.711	9.6
434.072	9.65
434.434	9.66
434.796	9.67
435.158	9.71
435.519	9.74
435.881	9.78
436.243	9.79
436.604	9.8
436.966	9.82
437.327	9.83
437.689	9.85
438.05	9.85
438.411	9.87
438.773	9.91
439.134	9.92
439.495	9.93
439.856	9.94
440.218	9.95
440.579	9.94
440.94	9.94
441.301	9.98
441.662	10.01
442.023	10.02
442.384	10.05
442.745	10.04
443.105	10.03
443.466	10.04
443.827	10.05
444.188	10.06
444.548	10.12
444.909	10.16
445.269	10.16
445.63	10.14
445.99	10.15
446.351	10.16
446.711	10.19
447.072	10.22
447.432	10.23
447.792	10.26
448.153	10.27
448.513	10.26
448.873	10.28
449.233	10.3
449.593	10.33
449.953	10.36
450.313	10.39
450.673	10.42
451.033	10.44
451.393	10.44
451.753	10.47
452.113	10.7
452.472	10.71
452.832	10.71
453.192	10.71
453.551	10.7
453.911	10.69
454.271	10.66
454.63	10.64
454.989	10.65
455.349	10.66
455.708	10.66
456.068	10.55
456.427	10.56
456.786	10.58
457.145	10.6
457.505	10.63
457.864	10.66
458.223	10.71
458.582	10.75
458.941	10.78
459.3	10.82
459.659	10.85
460.018	10.88
460.376	10.92
460.735	10.95
461.094	10.96
461.453	10.97
461.811	10.99
462.17	11
462.529	11.01
462.887	11.03
463.246	11.04
463.604	11.04
463.963	11.05
464.321	11.09
464.679	11.09
465.038	11.12
465.396	11.15
465.754	11.17
466.112	11.18
466.47	11.22
466.828	11.24
467.186	11.27
467.544	11.3
467.902	11.31
468.26	11.28
468.618	11.3
468.976	11.31
469.334	11.33
469.692	11.33
470.049	11.35
470.407	11.34
470.765	11.34
471.122	11.34
471.48	11.37
471.837	11.4
472.195	11.43
472.552	11.45
472.909	11.47
473.267	11.47
473.624	11.48
473.981	11.49
474.338	11.52
474.696	11.53
475.053	11.55
475.41	11.54
475.767	11.54
476.124	11.53
476.481	11.55
476.838	11.55
477.194	11.57
477.551	11.59
477.908	11.58
478.265	11.59
478.621	11.59
478.978	11.6
479.335	11.63
479.691	11.64
480.048	11.66
480.404	11.65
480.761	11.67
481.117	11.69
481.473	11.69
481.83	11.69
482.186	11.7
482.542	11.71
482.898	11.69
483.255	11.67
483.611	11.67
483.967	11.65
484.323	11.64
484.679	11.64
485.035	11.63
485.39	11.63
485.746	11.65
486.102	11.66
486.458	11.66
486.814	11.69
487.169	11.72
487.525	11.74
487.88	11.76
488.236	11.78
488.591	11.8
488.947	11.8
489.302	11.8
489.658	11.79
490.013	11.79
490.368	11.79
490.723	11.78
491.079	11.76
491.434	11.77
491.789	11.77
492.144	11.77
492.499	11.77
492.854	11.77
493.209	11.76
493.564	11.79
493.919	11.79
494.273	11.8
494.628	11.8
494.983	11.8
495.338	11.8
495.692	11.8
496.047	11.79
496.401	11.78
496.756	11.77
497.11	11.76
497.465	11.74
497.819	11.72
498.173	11.73
498.528	11.72
498.882	11.73
499.236	11.74
499.59	11.73
499.944	11.76
500.298	11.78
500.652	11.79
501.006	11.8
501.36	11.79
501.714	11.78
502.068	11.77
502.422	11.78
502.776	11.79
503.129	11.79
503.483	11.81
503.837	11.81
504.19	11.81
504.544	11.81
504.897	11.8
505.251	11.81
505.604	11.81
505.958	11.81
506.311	11.8
506.664	11.77
507.017	11.73
507.371	11.71
507.724	11.67
508.077	11.66
508.43	11.65
508.783	11.66
509.136	11.66
509.489	11.65
509.842	11.64
510.195	11.65
510.547	11.64
510.9	11.66
511.253	11.65
511.606	11.64
511.958	11.6
512.311	11.57
512.663	11.52
513.016	11.51
513.368	11.48
513.721	11.47
514.073	11.44
514.425	11.43
514.778	11.41
515.13	11.39
515.482	11.38
515.834	11.38
516.186	11.38
516.538	11.38
516.89	11.39
517.242	11.4
517.594	11.37
517.946	11.37
518.298	11.37
518.65	11.37
519.001	11.36
519.353	11.37
519.705	11.36
520.056	11.35
520.408	11.35
520.759	11.31
521.111	11.28
521.462	11.29
521.814	11.27
522.165	11.26
522.516	11.25
522.868	11.23
523.219	11.18
523.57	11.16
523.921	11.13
524.272	11.11
524.623	11.08
524.974	11.06
525.325	11.02
525.676	10.98
526.027	10.97
526.378	10.94
526.728	10.94
527.079	10.94
527.43	10.92
527.78	10.9
528.131	10.86
528.481	10.86
528.832	10.84
529.182	10.85
529.533	10.83
529.883	10.84
530.233	10.81
530.584	10.77
530.934	10.74
531.284	10.7
531.634	10.65
531.984	10.65
532.334	10.61
532.684	10.59
533.034	10.57
533.384	10.54
533.734	10.51
534.084	10.47
534.434	10.44
534.783	10.42
535.133	10.4
535.483	10.41
535.832	10.38
536.182	10.35
536.531	10.31
536.881	10.28
537.23	10.25
537.58	10.23
537.929	10.23
538.278	10.9
538.628	10.89
538.977	10.87
539.326	10.84
539.675	10.82
540.024	10.81
540.373	10.78
540.722	10.75
541.071	10.73
541.42	10.72
541.769	10.71
542.117	10
542.466	9.96
542.815	9.93
543.163	9.88
543.512	9.83
543.861	9.8
544.209	9.8
544.558	9.79
544.906	9.76
545.254	9.7
545.603	9.67
545.951	9.65
546.299	9.64
546.647	9.64
546.996	9.64
547.344	9.64
547.692	9.63
548.04	9.61
548.388	9.6
548.736	9.58
549.083	9.57
549.431	9.54
549.779	9.49
550.127	9.45
550.475	9.39
550.822	9.37
551.17	9.35
551.517	9.33
551.865	9.28
552.212	9.24
552.56	9.24
552.907	9.22
553.254	9.18
553.602	9.16
553.949	9.13
554.296	9.1
554.643	9.06
554.99	9.03
555.337	9
555.684	8.99
556.031	8.95
556.378	8.9
556.725	8.84
557.072	8.84
557.419	8.81
557.765	8.8
558.112	8.78
558.459	8.74
558.805	8.71
559.152	8.65
559.498	8.58
559.845	8.53
560.191	8.49
560.538	8.47
560.884	8.43
561.23	8.39
561.576	8.34
561.923	8.29
562.269	8.28
562.615	8.25
562.961	8.21
563.307	8.2
563.653	8.2
563.999	8.17
564.344	8.15
564.69	8.12
565.036	8.09
565.382	8.06
565.727	8.03
566.073	8
566.419	7.97
566.764	7.98
567.11	7.97
567.455	7.95
567.8	7.94
568.146	7.92
568.491	7.88
568.836	7.84
569.181	7.81
569.527	7.78
569.872	7.74
570.217	7.72
570.562	7.68
570.907	7.65
571.252	7.62
571.597	7.56
571.941	7.51
572.286	7.49
572.631	7.47
572.976	7.47
573.32	7.46
573.665	7.46
574.009	7.45
574.354	7.44
574.698	7.45
575.043	7.46
575.387	7.43
575.731	7.41
576.076	7.35
576.42	7.35
576.764	7.34
577.108	7.3
577.452	7.28
577.796	7.26
578.14	7.24
578.484	7.23
578.828	7.23
579.172	7.2
579.516	7.2
579.86	7.2
580.203	7.2
580.547	7.21
580.891	7.18
581.234	7.17
581.578	7.16
581.921	7.16
582.264	7.16
582.608	7.11
582.951	7.11
583.294	7.11
583.638	7.09
583.981	7.08
584.324	7.08
584.667	7.09
585.01	7.08
585.353	7.06
585.696	7.06
586.039	7.05
586.382	7.04
586.725	7.04
587.067	7.02
587.41	7.02
587.753	7.02
588.095	7
588.438	6.99
588.781	6.98
589.123	6.95
589.465	6.92
589.808	6.92
590.15	6.91
590.492	6.89
590.835	6.88
591.177	6.86
591.519	6.83
591.861	6.82
592.203	6.78
592.545	6.78
592.887	6.78
593.229	6.77
593.571	6.76
593.913	6.75
594.254	6.75
594.596	6.7
594.938	6.71
595.279	6.71
595.621	6.68
595.963	6.68
596.304	6.67
596.645	6.66
596.987	6.66
597.328	6.65
597.669	6.64
598.011	6.63
598.352	6.62
598.693	6.62
599.034	6.62
599.375	6.62
599.716	6.62
600.057	6.63
600.398	6.64
600.739	6.66
601.08	6.68
601.42	6.68
601.761	6.68
602.102	6.72
602.442	6.73
602.783	6.73
603.123	6.72
603.464	6.71
603.804	6.69
604.145	6.69
604.485	6.67
604.825	6.65
605.166	6.63
605.506	6.62
605.846	6.61
606.186	6.61
606.526	6.61
606.866	6.6
607.206	6.59
607.546	6.48
607.886	6.49
608.225	6.46
608.565	6.42
608.905	6.4
609.245	6.37
609.584	6.35
609.924	6.31
610.263	6.31
610.603	6.29
610.942	6.28
611.281	6.26
611.621	6.21
611.96	6.2
612.299	6.18
612.638	6.18
612.978	6.19
613.317	6.21
613.656	6.19
613.995	6.18
614.334	6.18
614.672	6.16
615.011	6.17
615.35	6.17
615.689	6.16
616.027	6.15
616.366	6.16
616.705	6.16
617.043	6.14
617.382	6.09
617.72	6.06
618.059	6.04
618.397	6.05
618.735	6.06
619.073	6.09
619.412	6.1
619.75	6.13
620.088	6.13
620.426	6.12
620.764	6.1
621.102	6.1
621.44	6.09
621.778	6.09
622.115	6.07
622.453	6.09
622.791	6.09
623.129	6.05
623.466	6.03
623.804	6.01
624.141	6.01
624.479	6.02
624.816	6.05
625.153	6.04
625.491	6
625.828	5.99
626.165	5.94
626.502	5.92
626.84	5.91
627.177	5.9
627.514	5.83
627.851	5.79
628.188	5.79
628.524	5.7
628.861	5.68
629.198	5.64
629.535	5.58
629.871	5.61
630.208	5.63
630.545	5.6
630.881	5.53
631.218	5.53
631.554	5.51
631.89	5.47
632.227	5.47
632.563	5.51
632.899	5.5
633.235	5.47
633.572	5.44
633.908	5.42
634.244	5.45
634.58	5.45
634.916	5.48
635.251	5.51
635.587	5.51
635.923	5.52
636.259	5.48
636.595	5.51
636.93	5.54
637.266	5.54
637.601	5.49
637.937	5.45
638.272	5.45
638.608	5.45
638.943	5.42
639.278	5.41
639.613	5.4
639.949	5.42
640.284	5.37
640.619	5.35
640.954	5.34
641.289	5.4
641.624	5.4
641.959	5.42
642.294	5.35
642.628	5.3
642.963	5.29
643.298	5.25
643.632	5.27
643.967	5.3
644.302	5.26
644.636	5.31
644.971	5.22
645.305	5.21
645.639	5.15
645.974	5.19
646.308	5.21
646.642	5.18
646.976	5.24
647.31	5.15
647.644	5.15
647.978	5.17
648.312	5.14
648.646	5.19
648.98	5.2
649.314	5.2
649.647	5.15
649.981	5.11
650.315	5.09
650.648	5.05
650.982	5.08
651.315	5.04
651.649	5.03
651.982	4.99
652.316	4.97
652.649	4.93
652.982	4.92
653.315	4.9
653.648	4.94
653.982	4.96
654.315	4.99
654.648	4.93
654.981	4.9
655.313	4.92
655.646	4.91
655.979	4.89
656.312	4.89
656.644	4.87
656.977	4.89
657.31	4.83
657.642	4.82
657.975	4.75
658.307	4.75
658.64	4.75
658.972	4.74
659.304	4.73
659.636	4.75
659.969	4.73
660.301	4.73
660.633	4.73
660.965	4.74
661.297	4.77
661.629	4.77
661.961	4.77
662.292	4.81
662.624	4.75
662.956	4.75
663.288	4.74
663.619	4.78
663.951	4.81
664.282	4.76
664.614	4.78
664.945	4.78
665.276	4.83
665.608	4.87
665.939	4.78
666.27	4.73
666.601	4.82
666.933	4.79
667.264	4.74
667.595	4.64
667.926	4.65
668.256	4.58
668.587	4.46
668.918	4.39
669.249	4.3
669.58	4.34
669.91	4.4
670.241	4.31
670.571	4.34
670.902	4.24
671.232	4.37
671.563	4.39
671.893	4.43
672.223	4.48
672.554	4.53
672.884	4.49
673.214	4.52
673.544	4.49
673.874	4.44
674.204	4.45
674.534	4.54
674.864	4.47
675.194	4.49
675.524	4.43
675.853	4.42
676.183	4.35
676.513	4.44
676.842	4.37
677.172	4.41
677.501	4.5
677.831	4.42
678.16	4.37
678.489	4.41
678.819	4.41
679.148	4.56
679.477	4.64
679.806	4.67
680.135	4.64
680.464	4.7
680.793	4.66
681.122	4.58
681.451	4.63
681.78	4.57
682.108	4.53
682.437	4.42
682.766	4.3
683.094	4.17
683.423	4.12
683.751	4.16
684.08	4.05
684.408	4.05
684.737	4.03
685.065	3.92
685.393	4.06
685.721	4
686.049	4.04
686.377	4.04
686.705	4.09
687.033	4.17
687.361	4.11
687.689	4.2
688.017	4.2
688.345	4.26
688.673	4.37
689.0	4.27
689.328	4.28
689.655	4.33
689.983	4.4
690.31	4.39
690.638	4.42
690.965	4.38
691.292	4.4
691.62	4.42
691.947	4.38
692.274	4.3
692.601	4.33
692.928	4.37
693.255	4.36
693.582	4.34
693.909	4.36
694.236	4.24
694.562	4.29
694.889	4.29
695.216	4.23
695.542	4.27
695.869	4.26
696.196	4.3
696.522	4.25
696.848	4.22
697.175	4.14
697.501	4.05
697.827	4.13
698.154	4.13
698.48	4.12
698.806	4.15
699.132	4.15
699.458	4.21
699.784	4.19
700.11	4.13
700.435	4.19
700.761	4.24
701.087	4.29
701.413	4.23
701.738	4.19
702.064	4.15
702.389	4.15
702.715	4.08
703.04	3.97
703.366	3.98
703.691	4.05
704.016	3.98
704.341	4.01
704.666	4
704.992	4.07
705.317	4.16
705.642	4.22
705.967	4.14
706.291	4.19
706.616	4.2
706.941	4.23
707.266	4.39
707.59	4.36
707.915	4.34
708.24	4.33
708.564	4.11
708.889	3.99
709.213	3.89
709.537	3.75
709.862	3.63
710.186	3.68
710.51	3.66
710.834	3.44
711.158	3.5
711.482	3.45
711.806	3.47
712.13	3.62
712.454	3.67
712.778	3.77
713.102	3.95
713.426	3.94
713.749	4.06
714.073	4.02
714.396	3.99
714.72	3.97
715.043	3.99
715.367	3.96
715.69	3.86
716.013	3.82
716.337	3.79
716.66	3.83
716.983	4.03
717.306	3.97
717.629	4.02
717.952	3.96
718.275	4.12
718.598	4.01
718.921	4.05
719.243	4.3
719.566	4.39
719.889	4.64
720.211	4.65
720.534	4.73
720.856	4.59
721.179	4.53
721.501	4.82
721.823	4.77
722.146	4.84
722.468	4.85
722.79	4.68
723.112	4.54
723.434	4.23
723.756	4.35
724.078	4.18
724.4	4.19
724.722	4.3
725.044	4.22
725.366	4.07
725.687	4.09
726.009	4.03
726.33	4.04
726.652	4.04
726.973	4.15
727.295	4
727.616	3.97
727.938	3.97
728.259	3.92
728.58	3.83
728.901	3.94
729.222	4.12
729.543	4.08
729.864	4.19
730.185	4.13
730.506	3.9
730.827	4.06
731.148	4.04
731.468	4.15
731.789	4.16
732.11	4.31
732.43	4.38
732.751	4.35
733.071	4.34
733.392	4.33
733.712	4.68
734.032	4.88
734.352	4.73
734.673	4.65
734.993	4.57
735.313	4.61
735.633	4.74
735.953	4.56
736.273	4.42
736.593	4.56
736.912	4.38
737.232	4.1
737.552	4.14
737.871	4.06
738.191	4.36
738.51	4.51
738.83	4.37
739.149	3.93
739.469	4.02
739.788	4.16
740.107	4.26
740.426	4.51
740.746	4.62
741.065	4.59
741.384	4.6
741.703	4.42
742.022	4.43
742.341	4.48
742.659	4.66
742.978	4.64
743.297	4.11
743.615	3.81
743.934	3.54
744.253	3.35
744.571	3.4
744.89	3.36
745.208	3.45
745.526	3.5
745.845	3.53
746.163	3.74
746.481	3.91
746.799	4.22
747.117	4.34
747.435	4.49
747.753	4.62
748.071	4.67
748.389	4.71
748.706	4.38
749.024	4.13
749.342	4.07
749.659	4.28
749.977	3.8
750.295	3.8
750.612	3.74
750.929	3.48
751.247	3.47
751.564	3.43
751.881	3.48
752.198	3.92
752.516	3.94
752.833	4.2
753.15	3.83
753.467	4.28
753.783	4.45
754.1	4.76
754.417	4.98
754.734	4.97
755.05	5.1
755.367	5.21
755.684	4.75
756.0	4.72
756.317	4.48
756.633	4.57
756.949	4.4
757.266	4.64
757.582	4.57
757.898	4.84
758.214	5.2
758.53	5.02
758.846	5.06
759.162	5.43
759.478	5.44
759.794	5.43
760.11	5.51
760.426	5.46
760.741	5.01
761.057	4.78
761.372	4.35
761.688	3.73
762.003	3.73
762.319	3.52
762.634	3.24
762.949	2.95
763.265	2.94
763.58	2.8
763.895	2.91
764.21	3.12
764.525	3.19
764.84	3.18
765.155	3.36
765.47	3.32
765.785	3.4
766.099	3.67
766.414	3.89
766.729	4.18
767.043	4.44
767.358	4.39
767.672	4.48
767.987	4.44
768.301	4.72
768.615	4.65
768.929	4.67
769.244	4.49
769.558	4.52
769.872	4.86
770.186	4.73
770.5	4.52
770.814	4.65
771.127	4.71
771.441	4.52
771.755	4.43
772.069	4.42
772.382	4.85
772.696	5.5
773.009	5.27
773.323	5.03
773.636	5
773.95	4.69
774.263	4.6
774.576	4.21
774.889	4.93
775.202	4.89
775.515	5.01
775.828	4.68
776.141	4.31
776.454	4.28
776.767	3.82
777.08	3.78
777.393	4.44
777.705	4.31
778.018	4.16
778.33	3.94
778.643	3.8
778.955	3.9
779.268	3.71
779.58	3.79
779.892	3.67
780.205	4.11
780.517	4.05
780.829	3.98
781.141	4.04
781.453	4.61
781.765	4.88
782.077	5.06
782.388	4.97
782.7	4.61
783.012	4.89
783.324	4.98
783.635	5.5
783.947	5.48
784.258	5.53
784.57	6.27
784.881	6.1
785.192	6.07
785.504	6.39
785.815	6.69
786.126	7.05
786.437	6.72
786.748	6.89
787.059	6.47
787.37	6.41
787.681	5.93
787.992	5.33
788.302	5.45
788.613	5.65
788.924	5.03
789.234	4.77
789.545	4.84
789.855	4.89
790.166	5.08
790.476	4.8
790.786	4.33
791.096	4.04
791.407	3.69
791.717	3.38
792.027	2.72
792.337	3.01
792.647	3.08
792.957	2.79
793.266	2.69
793.576	2.3
793.886	2.54
794.196	3.37
794.505	6.24
794.815	6.15
795.124	6.72
795.434	7.13
795.743	7.29
796.052	7.27
796.362	7.42
796.671	8.16
796.98	8.74
797.289	8.54
797.598	7.54
797.907	5.19
798.216	5.33
798.525	4.73
798.834	4.11
799.142	4.17
799.451	4.25
799.76	4.4
800.068	3.61
800.377	3.51
800.685	3.77
800.994	4.92
801.302	4.63
801.61	5.16
801.918	5.01
802.227	4.92
802.535	4.71
802.843	4.67
803.151	4.77
803.459	4.57
803.767	4.09
804.074	3.98
804.382	3.72
804.69	4.64
804.998	4.33
805.305	4.73
805.613	5.29
805.92	5.2
806.228	4.83
806.535	4.26
806.842	3.85
807.15	3.57
807.457	3.23
807.764	3.42
808.071	2.44
808.378	2.64
808.685	2.36
808.992	2.11
809.299	1.94
809.605	2.62
809.912	3.65
810.219	3.43
810.525	4.52
810.832	5.12
811.138	4.52
811.445	5.26
811.751	4.75
812.058	5.22
812.364	5.56
812.67	6.23
812.976	6.44
813.282	6.81
813.588	7.63
813.894	7.24
814.2	6.82
814.506	7.5
814.812	7.25
815.118	7.37
815.423	6.62
815.729	5.67
816.035	5.1
816.34	4.63
816.646	3.79
816.951	3.45
817.256	2.46
817.562	3.17
817.867	2.76
818.172	2.7
818.477	2.56
818.782	3.91
819.087	5.01
819.392	5.61
819.697	5.29
820.002	4.76
820.306	4.79
820.611	5.03
820.916	4.85
821.22	5.51
821.525	5.57
821.829	5.89
822.134	5.06
822.438	4.96
822.742	4.67
823.047	4.94
823.351	4.95
823.655	5.07
823.959	5.03
824.263	4.89
824.567	4.64
824.871	4.41
825.174	4.27
825.478	6.44
825.782	6.55
826.086	6.74
826.389	6.77
826.693	6.8
826.996	6.63
827.3	6.67
827.603	6.69
827.906	6.68
828.209	6.72
828.513	6.54
828.816	4.09
829.119	3.82
829.422	3.79
829.725	3.71
830.028	4.14
830.33	4.53
830.633	5.13
830.936	5.33
831.238	5.71
831.541	6.24
831.844	6.83
832.146	6.47
832.448	6.55
832.751	6.53
833.053	7
833.355	6.75
833.657	6.77
833.96	6.45
834.262	6.82
834.564	6.45
834.865	6.64
835.167	7.26
835.469	7.85
835.771	7.72
836.073	7.89
836.374	7.51
836.676	7.69
836.977	7.61
837.279	7.52
837.58	7.59
837.882	8.26
838.183	7.39
838.484	7.01
838.785	7.08
839.086	8.24
839.387	7.95
839.688	7.82
839.989	7.42
840.29	6.8
840.591	6.88
840.892	6.3
841.192	6.79
841.493	7.06
841.794	6.79
842.094	6.54
842.394	5.53
842.695	6.68
842.995	6.62
843.295	6.81
843.596	7.69
843.896	6.88
844.196	6.98
844.496	4.71
844.796	4.38
845.096	4.06
845.396	4.31
845.695	5.3
845.995	4.61
846.295	4.55
846.594	6.45
846.894	6.84
847.194	8.09
847.493	8.6
847.792	8.47
848.092	9.42
848.391	10.01
848.69	10.3
848.989	10.88
849.288	10.79
849.587	9.97
849.886	7.39
850.185	7.15
850.484	7.63
850.783	8.41
851.081	8.53
851.38	7.5
851.679	5.57
851.977	6.51
852.276	5.41
852.574	3.79
852.872	5.95
853.171	8.83
853.469	9.52
853.767	8.36
854.065	9.75
854.363	11.76
854.661	13.02
854.959	16.44
855.257	17.46
855.555	18.23
855.853	20.33
856.15	19.3
856.448	16.66
856.746	15.07
857.043	14.43
857.341	14.67
857.638	16.44
857.935	15.63
858.233	13.74
858.53	11.11
858.827	12.61
859.124	13.78
859.421	13.3
859.718	14.91
860.015	13.64
860.312	14.19
860.609	12.35
860.905	11.65
861.202	12.3
861.499	11.23
861.795	13.26
862.092	12.79
862.388	11.08
862.684	11.25
862.981	6.63
863.277	10.32
863.573	11.34
863.869	12.11
864.165	7.83
864.461	7.14
864.757	10.49
865.053	6.76
865.349	2.11
865.645	2.78
865.94	2.41
866.236	6.62
866.532	4.01
866.827	4.13
867.123	1.3
867.418	6.25
867.713	5.24
868.009	4.16
868.304	5.59
868.599	8.75
868.894	7.17
869.189	9.56
869.484	11.11
869.779	12.2
870.074	12.38
870.369	14.85
870.663	15.48
870.958	15.7
871.252	16.22
871.547	16.45
871.842	15.26
872.136	17.13
872.43	16.42
872.725	14.55
873.019	16.14
873.313	14.58
873.607	13.29
873.901	11.06
874.195	12.26
874.489	12.1
874.783	11.29
875.077	7.61
875.37	5.57
875.664	4.19
875.958	3.42
876.251	1.25
876.545	1.25
876.838	1.25
877.132	1.25
877.425	1.25
877.718	1.25
878.011	1.25
878.305	6.39
878.598	8.31
878.891	8.38
879.184	8.9
879.476	11.49
879.769	13.38
880.062	13.85
880.355	13.7
880.647	10.69
880.94	8
881.232	4.77
881.525	1.53
881.817	1.53
882.11	0.62
882.402	1.8
882.694	0.27
882.986	0.5
883.278	2.48
883.57	3.19
883.862	4.07
884.154	4.89
884.446	5.17
884.738	5.76
885.03	6.78
885.321	6.82
885.613	6.82
885.904	7.11
886.196	7.78
886.487	7.82
886.779	8.08
887.07	8.14
887.361	8.25
887.652	8.67
887.943	9.11
888.234	9.22
888.525	8.75
888.816	9.15
889.107	10.26
889.398	11.24
889.689	12.12
889.979	13.52
890.27	13.41
890.56	14.11
890.851	14.98
891.141	15.3
891.432	15.64
891.722	19.3
