Data from groin3_Reflection__0__15-30-48-228.txt Node

Date: Thu Aug 04 15:30:48 AEST 2022
User: kathy
Spectrometer: JAZA2503
Trigger mode: 0
Integration Time (sec): 2.439700E-1
Scans to average: 10
Electric dark correction enabled: true
Nonlinearity correction enabled: true
Boxcar width: 5
XAxis mode: Wavelengths
Number of Pixels in Spectrum: 2048
>>>>>Begin Spectral Data<<<<<
189.467	-244.53
189.852	-205.39
190.237	-98.88
190.622	-80.26
191.007	-132.52
191.392	-35.79
191.777	5.35
192.162	22.84
192.546	103.75
192.931	187.2
193.316	87.19
193.701	-56.21
194.086	-80.06
194.47	81.71
194.855	-3418.37
195.24	-228.75
195.624	277.55
196.009	151.18
196.393	219.35
196.778	374.68
197.163	165.07
197.547	121.95
197.931	122.57
198.316	88.71
198.7	62.92
199.085	54.71
199.469	61.58
199.853	48.49
200.237	44.15
200.622	37.87
201.006	43.37
201.39	38.76
201.774	27.48
202.158	25.84
202.542	21.84
202.926	23.86
203.31	15.99
203.694	5.91
204.078	10.04
204.462	17.69
204.846	19.76
205.23	19.52
205.614	20.47
205.998	30.76
206.381	35.01
206.765	37.09
207.149	37.36
207.532	41.22
207.916	36.7
208.3	37.44
208.683	36.39
209.067	40.86
209.45	31.04
209.834	34.89
210.217	29.04
210.601	17.9
210.984	21.81
211.367	24.55
211.751	19.41
212.134	22.01
212.517	27.39
212.901	29.11
213.284	32.89
213.667	40.95
214.05	38.69
214.433	41.37
214.816	46.73
215.199	46.98
215.582	45.88
215.965	43.64
216.348	44.23
216.731	35.16
217.114	22.38
217.497	11.89
217.88	7.44
218.262	1.52
218.645	-2.62
219.028	-2.62
219.411	-9.93
219.793	-8.38
220.176	-2.93
220.559	-0.34
220.941	4.09
221.324	10.28
221.706	14.75
222.089	14.68
222.471	18.86
222.853	19.81
223.236	19.54
223.618	19.24
224	17.83
224.383	15.85
224.765	13.9
225.147	12.91
225.529	13.69
225.912	11.66
226.294	10.51
226.676	7.26
227.058	4.92
227.44	3.75
227.822	4.08
228.204	4.45
228.586	4.41
228.968	4.66
229.349	4.64
229.731	4.6
230.113	3.83
230.495	3.83
230.877	4.13
231.258	4.58
231.64	4.68
232.022	4.48
232.403	4.28
232.785	4.3
233.166	3.72
233.548	3.34
233.929	3.1
234.311	4.33
234.692	4.18
235.073	4.25
235.455	4.44
235.836	5.22
236.217	5.37
236.599	5.32
236.98	5.32
237.361	5.41
237.742	5.22
238.123	5.12
238.504	4.54
238.885	4.6
239.266	4.29
239.647	3.57
240.028	2.95
240.409	2.55
240.79	2.65
241.171	2.54
241.552	2.48
241.933	2.46
242.313	2.63
242.694	2.68
243.075	2.76
243.456	2.83
243.836	3.07
244.217	3.22
244.597	3.39
244.978	3.32
245.358	3.48
245.739	3.59
246.119	3.61
246.5	3.35
246.88	3.18
247.26	3.06
247.641	3.01
248.021	2.91
248.401	2.77
248.781	2.77
249.162	2.85
249.542	2.68
249.922	2.61
250.302	2.72
250.682	2.87
251.062	2.91
251.442	2.78
251.822	2.7
252.202	2.81
252.582	2.91
252.961	2.93
253.341	2.83
253.721	2.92
254.101	2.77
254.48	2.72
254.86	2.69
255.24	2.77
255.619	2.95
255.999	3.01
256.378	2.86
256.758	2.72
257.137	2.52
257.517	2.25
257.896	2.09
258.276	2.19
258.655	1.85
259.034	1.68
259.414	1.54
259.793	1.47
260.172	1.37
260.551	1.25
260.93	1.18
261.309	1.13
261.688	1.15
262.068	1.22
262.447	1.15
262.825	1.18
263.204	1.11
263.583	1.16
263.962	1.17
264.341	1.23
264.72	1.3
265.099	1.47
265.477	1.7
265.856	1.69
266.235	1.56
266.613	1.6
266.992	1.77
267.371	1.84
267.749	1.93
268.128	1.81
268.506	1.81
268.884	1.84
269.263	1.75
269.641	1.6
270.02	1.64
270.398	1.61
270.776	1.62
271.154	1.55
271.533	1.61
271.911	1.56
272.289	1.67
272.667	1.63
273.045	1.63
273.423	1.63
273.801	1.65
274.179	1.61
274.557	1.71
274.935	1.69
275.313	1.77
275.69	1.71
276.068	1.67
276.446	1.62
276.824	1.59
277.201	1.59
277.579	1.64
277.957	1.61
278.334	1.58
278.712	1.5
279.089	1.4
279.467	1.22
279.844	1.24
280.222	1.15
280.599	1.13
280.976	1.13
281.354	1.05
281.731	0.99
282.108	1.02
282.485	1.01
282.863	1.08
283.24	1.19
283.617	1.23
283.994	1.21
284.371	1.24
284.748	1.27
285.125	1.31
285.502	1.29
285.879	1.33
286.256	1.31
286.633	1.39
287.009	1.41
287.386	1.41
287.763	1.48
288.139	1.48
288.516	1.58
288.893	1.61
289.269	1.65
289.646	1.73
290.022	1.76
290.399	1.79
290.775	1.81
291.152	1.81
291.528	1.83
291.904	1.83
292.281	1.87
292.657	1.87
293.033	1.89
293.41	1.92
293.786	1.96
294.162	2
294.538	2.03
294.914	2.07
295.29	2.13
295.666	2.17
296.042	2.24
296.418	2.35
296.794	2.39
297.17	2.47
297.546	2.54
297.921	2.6
298.297	2.66
298.673	2.72
299.048	2.76
299.424	2.81
299.8	2.88
300.175	2.96
300.551	3
300.926	3.06
301.302	3.09
301.677	3.14
302.053	3.21
302.428	3.28
302.803	3.38
303.179	3.5
303.554	3.54
303.929	3.6
304.304	3.68
304.68	3.74
305.055	3.84
305.43	3.92
305.805	4.01
306.18	4.05
306.555	4.14
306.93	4.18
307.305	4.18
307.679	4.24
308.054	4.29
308.429	4.3
308.804	4.33
309.179	4.36
309.553	4.39
309.928	4.4
310.303	4.44
310.677	4.49
311.052	4.48
311.426	4.53
311.801	4.61
312.175	4.62
312.55	4.68
312.924	4.72
313.298	4.76
313.673	4.82
314.047	4.89
314.421	4.92
314.795	4.97
315.17	5.07
315.544	5.14
315.918	5.18
316.292	5.29
316.666	5.39
317.04	5.52
317.414	5.62
317.788	5.77
318.162	5.93
318.535	6.12
318.909	6.27
319.283	6.46
319.657	6.62
320.03	6.83
320.404	7.01
320.778	7.36
321.151	7.77
321.525	8.22
321.898	8.75
322.272	9.26
322.645	9.9
323.019	10.58
323.392	11.3
323.765	12.16
324.139	13.07
324.512	14.02
324.885	14.95
325.258	15.84
325.632	16.57
326.005	17.18
326.378	17.71
326.751	18.09
327.124	18.29
327.497	18.41
327.87	18.63
328.243	18.71
328.616	18.77
328.988	18.89
329.361	18.92
329.734	18.88
330.107	18.83
330.479	18.72
330.852	18.53
331.225	18.41
331.597	18.23
331.97	17.98
332.342	17.66
332.715	17.39
333.087	17.21
333.46	17.01
333.832	16.88
334.204	16.92
334.577	16.91
334.949	16.89
335.321	16.89
335.693	16.73
336.065	16.57
336.438	16.33
336.81	16.18
337.182	15.94
337.554	15.75
337.926	15.6
338.298	15.43
338.669	15.25
339.041	15.06
339.413	14.98
339.785	14.85
340.157	14.72
340.528	14.62
340.9	14.55
341.272	14.49
341.643	14.45
342.015	14.48
342.386	14.55
342.758	14.7
343.129	14.86
343.501	14.92
343.872	14.94
344.243	14.91
344.615	14.85
344.986	14.75
345.357	14.74
345.728	14.76
346.099	14.8
346.471	14.77
346.842	14.8
347.213	14.75
347.584	14.7
347.955	14.72
348.326	14.65
348.697	14.6
349.067	14.55
349.438	14.55
349.809	14.6
350.18	14.71
350.55	14.74
350.921	14.82
351.292	14.9
351.662	14.96
352.033	15
352.403	15.03
352.774	15.07
353.144	15.07
353.515	15.08
353.885	15.08
354.255	15.03
354.626	15.05
354.996	15.01
355.366	14.98
355.736	14.96
356.107	14.94
356.477	14.94
356.847	14.97
357.217	14.98
357.587	15
357.957	15.02
358.327	15.07
358.697	15.09
359.066	15.11
359.436	15.14
359.806	15.15
360.176	15.18
360.546	15.19
360.915	15.21
361.285	15.23
361.654	15.21
362.024	15.21
362.393	15.19
362.763	15.21
363.132	15.21
363.502	15.22
363.871	15.24
364.24	15.29
364.61	15.31
364.979	15.33
365.348	15.34
365.717	15.4
366.087	15.43
366.456	15.47
366.825	15.52
367.194	15.55
367.563	15.6
367.932	15.67
368.301	15.7
368.669	15.76
369.038	15.79
369.407	15.86
369.776	15.87
370.145	15.91
370.513	15.95
370.882	15.95
371.25	16.03
371.619	16.07
371.988	16.11
372.356	16.12
372.724	16.14
373.093	16.16
373.461	16.2
373.83	16.25
374.198	16.28
374.566	16.31
374.934	16.33
375.303	16.34
375.671	16.36
376.039	16.37
376.407	16.43
376.775	16.48
377.143	16.54
377.511	16.57
377.879	16.62
378.247	16.68
378.615	16.75
378.982	16.82
379.35	16.85
379.718	16.93
380.086	17.02
380.453	17.09
380.821	17.16
381.188	17.2
381.556	17.25
381.923	17.3
382.291	17.35
382.658	17.37
383.026	17.43
383.393	17.48
383.76	17.53
384.128	17.59
384.495	17.65
384.862	17.68
385.229	17.74
385.596	17.78
385.963	17.82
386.33	17.87
386.697	17.92
387.064	17.95
387.431	18.02
387.798	18.01
388.165	18.03
388.532	18.01
388.899	18.04
389.265	18.05
389.632	18.09
389.999	18.12
390.365	18.14
390.732	18.19
391.098	18.22
391.465	18.24
391.831	18.29
392.198	18.3
392.564	18.35
392.93	18.39
393.297	18.44
393.663	18.5
394.029	18.56
394.395	18.63
394.762	18.68
395.128	18.71
395.494	18.77
395.86	18.84
396.226	18.92
396.592	18.97
396.958	19.02
397.323	19.06
397.689	19.12
398.055	19.19
398.421	19.24
398.787	19.29
399.152	19.38
399.518	19.45
399.883	19.5
400.249	19.56
400.615	19.6
400.98	19.67
401.345	19.71
401.711	19.74
402.076	19.77
402.442	19.81
402.807	19.82
403.172	19.85
403.537	19.83
403.902	19.86
404.268	19.88
404.633	19.91
404.998	19.91
405.363	19.93
405.728	19.97
406.093	19.98
406.457	19.99
406.822	20.03
407.187	20.06
407.552	20.12
407.917	20.15
408.281	20.17
408.646	20.21
409.011	20.26
409.375	20.36
409.74	20.39
410.104	20.44
410.469	20.45
410.833	20.5
411.197	20.52
411.562	20.54
411.926	20.58
412.29	20.62
412.655	20.66
413.019	20.67
413.383	20.67
413.747	20.71
414.111	20.76
414.475	20.83
414.839	20.89
415.203	20.96
415.567	21.04
415.931	21.1
416.295	21.15
416.658	21.19
417.022	21.23
417.386	21.26
417.749	21.29
418.113	21.31
418.477	21.35
418.84	21.37
419.204	21.4
419.567	21.42
419.931	21.47
420.294	21.52
420.657	21.59
421.021	21.66
421.384	21.73
421.747	21.82
422.11	21.89
422.473	21.94
422.836	22
423.199	22.05
423.562	22.09
423.925	22.12
424.288	22.16
424.651	22.18
425.014	22.22
425.377	22.24
425.74	22.26
426.102	22.3
426.465	22.33
426.828	22.4
427.19	22.41
427.553	22.47
427.916	22.5
428.278	22.53
428.641	22.56
429.003	22.57
429.365	22.59
429.728	22.59
430.09	22.6
430.452	22.6
430.814	22.57
431.177	22.58
431.539	22.57
431.901	22.6
432.263	22.62
432.625	22.67
432.987	22.7
433.349	22.75
433.711	22.84
434.072	22.95
434.434	23.04
434.796	23.12
435.158	23.25
435.519	23.36
435.881	23.42
436.243	23.5
436.604	23.54
436.966	23.58
437.327	23.61
437.689	23.62
438.05	23.58
438.411	23.59
438.773	23.62
439.134	23.63
439.495	23.65
439.856	23.67
440.218	23.67
440.579	23.72
440.94	23.77
441.301	23.84
441.662	23.91
442.023	23.97
442.384	24.02
442.745	24.05
443.105	24.09
443.466	24.14
443.827	24.17
444.188	24.21
444.548	24.23
444.909	24.29
445.269	24.3
445.63	24.32
445.99	24.34
446.351	24.36
446.711	24.4
447.072	24.39
447.432	24.39
447.792	24.42
448.153	24.46
448.513	24.47
448.873	24.47
449.233	24.47
449.593	24.48
449.953	24.48
450.313	24.5
450.673	24.53
451.033	24.59
451.393	24.62
451.753	24.65
452.113	25.13
452.472	25.15
452.832	25.15
453.192	25.15
453.551	25.11
453.911	25.07
454.271	25
454.63	24.97
454.989	24.93
455.349	24.91
455.708	24.91
456.068	24.65
456.427	24.67
456.786	24.7
457.145	24.75
457.505	24.83
457.864	24.93
458.223	25.04
458.582	25.14
458.941	25.27
459.3	25.37
459.659	25.45
460.018	25.51
460.376	25.57
460.735	25.6
461.094	25.63
461.453	25.65
461.811	25.66
462.17	25.68
462.529	25.69
462.887	25.68
463.246	25.67
463.604	25.67
463.963	25.69
464.321	25.8
464.679	25.83
465.038	25.84
465.396	25.88
465.754	25.91
466.112	25.96
466.47	26.02
466.828	26.07
467.186	26.14
467.544	26.18
467.902	26.24
468.26	26.15
468.618	26.18
468.976	26.22
469.334	26.21
469.692	26.19
470.049	26.15
470.407	26.11
470.765	26.08
471.122	26.04
471.48	26.08
471.837	26.1
472.195	26.13
472.552	26.18
472.909	26.19
473.267	26.22
473.624	26.23
473.981	26.26
474.338	26.29
474.696	26.3
475.053	26.33
475.41	26.3
475.767	26.3
476.124	26.29
476.481	26.29
476.838	26.27
477.194	26.25
477.551	26.28
477.908	26.28
478.265	26.27
478.621	26.27
478.978	26.26
479.335	26.29
479.691	26.3
480.048	26.31
480.404	26.3
480.761	26.31
481.117	26.33
481.473	26.28
481.83	26.28
482.186	26.27
482.542	26.24
482.898	26.24
483.255	26.22
483.611	26.17
483.967	26.14
484.323	26.12
484.679	26.1
485.035	26.09
485.39	26.09
485.746	26.08
486.102	26.08
486.458	26.09
486.814	26.1
487.169	26.11
487.525	26.12
487.88	26.13
488.236	26.13
488.591	26.12
488.947	26.09
489.302	26.1
489.658	26.07
490.013	26.04
490.368	26
490.723	25.94
491.079	25.89
491.434	25.87
491.789	25.83
492.144	25.81
492.499	25.82
492.854	25.83
493.209	25.82
493.564	25.85
493.919	25.87
494.273	25.88
494.628	25.9
494.983	25.91
495.338	25.89
495.692	25.91
496.047	25.87
496.401	25.82
496.756	25.75
497.11	25.67
497.465	25.58
497.819	25.52
498.173	25.46
498.528	25.41
498.882	25.33
499.236	25.31
499.59	25.26
499.944	25.25
500.298	25.24
500.652	25.23
501.006	25.23
501.36	25.22
501.714	25.2
502.068	25.2
502.422	25.19
502.776	25.24
503.129	25.25
503.483	25.28
503.837	25.32
504.19	25.34
504.544	25.35
504.897	25.36
505.251	25.35
505.604	25.33
505.958	25.31
506.311	25.27
506.664	25.19
507.017	25.12
507.371	25.05
507.724	24.96
508.077	24.88
508.43	24.81
508.783	24.78
509.136	24.76
509.489	24.71
509.842	24.7
510.195	24.69
510.547	24.64
510.9	24.61
511.253	24.53
511.606	24.49
511.958	24.39
512.311	24.31
512.663	24.18
513.016	24.06
513.368	23.96
513.721	23.86
514.073	23.79
514.425	23.72
514.778	23.66
515.13	23.62
515.482	23.57
515.834	23.55
516.186	23.51
516.538	23.53
516.89	23.55
517.242	23.59
517.594	23.59
517.946	23.6
518.298	23.6
518.65	23.6
519.001	23.58
519.353	23.54
519.705	23.49
520.056	23.43
520.408	23.35
520.759	23.25
521.111	23.17
521.462	23.09
521.814	23
522.165	22.95
522.516	22.88
522.868	22.8
523.219	22.74
523.57	22.68
523.921	22.59
524.272	22.54
524.623	22.47
524.974	22.37
525.325	22.31
525.676	22.22
526.027	22.15
526.378	22.08
526.728	21.98
527.079	21.92
527.43	21.85
527.78	21.78
528.131	21.71
528.481	21.66
528.832	21.62
529.182	21.57
529.533	21.54
529.883	21.48
530.233	21.4
530.584	21.34
530.934	21.28
531.284	21.2
531.634	21.13
531.984	21.07
532.334	21
532.684	20.9
533.034	20.81
533.384	20.75
533.734	20.68
534.084	20.63
534.434	20.58
534.783	20.49
535.133	20.42
535.483	20.38
535.832	20.3
536.182	20.22
536.531	20.15
536.881	20.09
537.23	20.01
537.58	19.92
537.929	19.83
538.278	20.77
538.628	20.71
538.977	20.64
539.326	20.57
539.675	20.5
540.024	20.42
540.373	20.37
540.722	20.31
541.071	20.26
541.42	20.22
541.769	20.17
542.117	19.1
542.466	19.04
542.815	18.98
543.163	18.88
543.512	18.79
543.861	18.72
544.209	18.65
544.558	18.54
544.906	18.45
545.254	18.33
545.603	18.28
545.951	18.21
546.299	18.16
546.647	18.15
546.996	18.14
547.344	18.12
547.692	18.1
548.04	18.04
548.388	18.01
548.736	17.97
549.083	17.92
549.431	17.86
549.779	17.8
550.127	17.73
550.475	17.61
550.822	17.52
551.17	17.46
551.517	17.38
551.865	17.33
552.212	17.27
552.56	17.23
552.907	17.21
553.254	17.13
553.602	17.04
553.949	16.99
554.296	16.94
554.643	16.83
554.99	16.76
555.337	16.69
555.684	16.62
556.031	16.55
556.378	16.46
556.725	16.36
557.072	16.28
557.419	16.25
557.765	16.16
558.112	16.09
558.459	16.08
558.805	16
559.152	15.91
559.498	15.83
559.845	15.76
560.191	15.66
560.538	15.59
560.884	15.53
561.23	15.44
561.576	15.38
561.923	15.33
562.269	15.24
562.615	15.21
562.961	15.16
563.307	15.12
563.653	15.09
563.999	15.07
564.344	15.02
564.69	14.95
565.036	14.92
565.382	14.84
565.727	14.78
566.073	14.74
566.419	14.68
566.764	14.64
567.11	14.58
567.455	14.51
567.8	14.48
568.146	14.44
568.491	14.38
568.836	14.32
569.181	14.27
569.527	14.19
569.872	14.1
570.217	13.99
570.562	13.92
570.907	13.88
571.252	13.84
571.597	13.75
571.941	13.66
572.286	13.64
572.631	13.61
572.976	13.59
573.32	13.59
573.665	13.57
574.009	13.57
574.354	13.58
574.698	13.57
575.043	13.57
575.387	13.55
575.731	13.53
576.076	13.47
576.42	13.47
576.764	13.43
577.108	13.39
577.452	13.34
577.796	13.32
578.14	13.28
578.484	13.26
578.828	13.22
579.172	13.22
579.516	13.19
579.86	13.15
580.203	13.13
580.547	13.09
580.891	13.06
581.234	13.01
581.578	12.93
581.921	12.93
582.264	12.9
582.608	12.85
582.951	12.84
583.294	12.83
583.638	12.8
583.981	12.78
584.324	12.74
584.667	12.71
585.01	12.69
585.353	12.67
585.696	12.67
586.039	12.64
586.382	12.62
586.725	12.59
587.067	12.57
587.41	12.56
587.753	12.56
588.095	12.51
588.438	12.49
588.781	12.48
589.123	12.44
589.465	12.39
589.808	12.38
590.15	12.35
590.492	12.31
590.835	12.28
591.177	12.23
591.519	12.22
591.861	12.22
592.203	12.18
592.545	12.16
592.887	12.14
593.229	12.13
593.571	12.12
593.913	12.11
594.254	12.08
594.596	12.05
594.938	12.03
595.279	12.01
595.621	12.01
595.963	11.98
596.304	11.93
596.645	11.94
596.987	11.94
597.328	11.92
597.669	11.91
598.011	11.89
598.352	11.88
598.693	11.86
599.034	11.85
599.375	11.85
599.716	11.85
600.057	11.85
600.398	11.84
600.739	11.83
601.08	11.79
601.42	11.77
601.761	11.76
602.102	11.76
602.442	11.74
602.783	11.7
603.123	11.69
603.464	11.69
603.804	11.68
604.145	11.66
604.485	11.63
604.825	11.59
605.166	11.57
605.506	11.55
605.846	11.55
606.186	11.53
606.526	11.52
606.866	11.5
607.206	11.49
607.546	11.49
607.886	11.41
608.225	11.39
608.565	11.37
608.905	11.34
609.245	11.31
609.584	11.27
609.924	11.25
610.263	11.24
610.603	11.22
610.942	11.22
611.281	11.2
611.621	11.19
611.96	11.18
612.299	11.2
612.638	11.21
612.978	11.2
613.317	11.19
613.656	11.17
613.995	11.16
614.334	11.16
614.672	11.13
615.011	11.12
615.35	11.09
615.689	11.06
616.027	11.04
616.366	11.03
616.705	11.02
617.043	10.98
617.382	10.97
617.72	10.92
618.059	10.85
618.397	10.85
618.735	10.84
619.073	10.75
619.412	10.75
619.75	10.72
620.088	10.67
620.426	10.61
620.764	10.61
621.102	10.6
621.44	10.59
621.778	10.57
622.115	10.54
622.453	10.54
622.791	10.53
623.129	10.47
623.466	10.46
623.804	10.41
624.141	10.41
624.479	10.4
624.816	10.39
625.153	10.39
625.491	10.39
625.828	10.36
626.165	10.3
626.502	10.29
626.84	10.29
627.177	10.27
627.514	10.25
627.851	10.2
628.188	10.15
628.524	10.08
628.861	10.06
629.198	10.01
629.535	9.95
629.871	9.92
630.208	9.93
630.545	9.92
630.881	9.88
631.218	9.86
631.554	9.83
631.89	9.8
632.227	9.79
632.563	9.81
632.899	9.76
633.235	9.75
633.572	9.68
633.908	9.61
634.244	9.59
634.58	9.54
634.916	9.44
635.251	9.44
635.587	9.4
635.923	9.4
636.259	9.36
636.595	9.35
636.93	9.31
637.266	9.31
637.601	9.29
637.937	9.22
638.272	9.17
638.608	9.23
638.943	9.2
639.278	9.19
639.613	9.12
639.949	9.07
640.284	9.06
640.619	9.14
640.954	9.14
641.289	9.12
641.624	9.12
641.959	9.14
642.294	9.12
642.628	9.07
642.963	9.07
643.298	9.01
643.632	9.09
643.967	9.06
644.302	8.91
644.636	8.88
644.971	8.81
645.305	8.82
645.639	8.74
645.974	8.66
646.308	8.64
646.642	8.6
646.976	8.64
647.31	8.56
647.644	8.55
647.978	8.57
648.312	8.6
648.646	8.68
648.98	8.67
649.314	8.62
649.647	8.65
649.981	8.58
650.315	8.54
650.648	8.47
650.982	8.4
651.315	8.38
651.649	8.33
651.982	8.26
652.316	8.22
652.649	8.15
652.982	8.22
653.315	8.19
653.648	8.29
653.982	8.3
654.315	8.38
654.648	8.35
654.981	8.35
655.313	8.4
655.646	8.36
655.979	8.29
656.312	8.28
656.644	8.22
656.977	8.17
657.31	7.94
657.642	7.87
657.975	7.78
658.307	7.81
658.64	7.79
658.972	7.8
659.304	7.78
659.636	7.78
659.969	7.76
660.301	7.72
660.633	7.74
660.965	7.83
661.297	7.91
661.629	7.91
661.961	7.83
662.292	7.83
662.624	7.73
662.956	7.71
663.288	7.77
663.619	7.79
663.951	7.81
664.282	7.76
664.614	7.75
664.945	7.69
665.276	7.7
665.608	7.72
665.939	7.66
666.27	7.63
666.601	7.68
666.933	7.59
667.264	7.56
667.595	7.52
667.926	7.49
668.256	7.46
668.587	7.36
668.918	7.34
669.249	7.27
669.58	7.29
669.91	7.24
670.241	7.14
670.571	7.2
670.902	7.1
671.232	7.15
671.563	7.14
671.893	7.17
672.223	7.23
672.554	7.27
672.884	7.36
673.214	7.37
673.544	7.48
673.874	7.5
674.204	7.47
674.534	7.49
674.864	7.49
675.194	7.45
675.524	7.39
675.853	7.4
676.183	7.38
676.513	7.38
676.842	7.26
677.172	7.23
677.501	7.22
677.831	7.14
678.16	7.16
678.489	7.1
678.819	7.23
679.148	7.3
679.477	7.36
679.806	7.32
680.135	7.18
680.464	7.26
680.793	7.27
681.122	7.28
681.451	7.29
681.78	7.21
682.108	7.17
682.437	6.94
682.766	6.82
683.094	6.61
683.423	6.54
683.751	6.59
684.08	6.48
684.408	6.41
684.737	6.37
685.065	6.29
685.393	6.42
685.721	6.4
686.049	6.53
686.377	6.51
686.705	6.62
687.033	6.7
687.361	6.73
687.689	6.78
688.017	6.83
688.345	6.93
688.673	7.03
689.0	6.95
689.328	6.91
689.655	6.95
689.983	7.07
690.31	7.01
690.638	6.98
690.965	6.93
691.292	6.95
691.62	6.93
691.947	6.8
692.274	6.75
692.601	6.76
692.928	6.79
693.255	6.74
693.582	6.68
693.909	6.74
694.236	6.71
694.562	6.7
694.889	6.7
695.216	6.67
695.542	6.71
695.869	6.6
696.196	6.61
696.522	6.57
696.848	6.49
697.175	6.4
697.501	6.27
697.827	6.22
698.154	6.16
698.48	6.19
698.806	6.14
699.132	6.19
699.458	6.3
699.784	6.26
700.11	6.31
700.435	6.4
700.761	6.38
701.087	6.41
701.413	6.43
701.738	6.5
702.064	6.43
702.389	6.44
702.715	6.37
703.04	6.4
703.366	6.46
703.691	6.42
704.016	6.32
704.341	6.47
704.666	6.48
704.992	6.6
705.317	6.6
705.642	6.71
705.967	6.73
706.291	6.72
706.616	6.61
706.941	6.6
707.266	6.67
707.59	6.66
707.915	6.66
708.24	6.51
708.564	6.35
708.889	6.29
709.213	6.24
709.537	6.05
709.862	5.95
710.186	5.92
710.51	5.84
710.834	5.8
711.158	5.82
711.482	5.71
711.806	5.79
712.13	5.77
712.454	5.8
712.778	5.79
713.102	5.93
713.426	6.05
713.749	6.09
714.073	6.11
714.396	6.05
714.72	6.09
715.043	6.14
715.367	6.36
715.69	6.43
716.013	6.39
716.337	6.46
716.66	6.5
716.983	6.62
717.306	6.74
717.629	6.77
717.952	6.77
718.275	6.73
718.598	6.64
718.921	6.37
719.243	6.51
719.566	6.55
719.889	6.6
720.211	6.64
720.534	6.54
720.856	6.32
721.179	6.34
721.501	6.47
721.823	6.61
722.146	6.74
722.468	6.75
722.79	6.64
723.112	6.75
723.434	6.5
723.756	6.4
724.078	6.35
724.4	6.25
724.722	6.23
725.044	6.18
725.366	6.01
725.687	5.91
726.009	5.94
726.33	5.89
726.652	5.87
726.973	5.96
727.295	5.98
727.616	6
727.938	6.21
728.259	6.32
728.58	6.4
728.901	6.56
729.222	6.71
729.543	6.83
729.864	6.94
730.185	6.85
730.506	6.66
730.827	6.6
731.148	6.6
731.468	6.6
731.789	6.33
732.11	6.26
732.43	6.28
732.751	6.24
733.071	6.11
733.392	5.9
733.712	6.15
734.032	6.33
734.352	6.41
734.673	6.25
734.993	6.08
735.313	6.14
735.633	6.56
735.953	6.32
736.273	6.34
736.593	6.47
736.912	6.51
737.232	6.25
737.552	6.25
737.871	6.12
738.191	6.38
738.51	6.7
738.83	6.82
739.149	6.39
739.469	6.62
739.788	6.88
740.107	6.89
740.426	7.12
740.746	7.23
741.065	7.25
741.384	7.22
741.703	6.99
742.022	7.04
742.341	6.96
742.659	6.99
742.978	6.88
743.297	6.33
743.615	6
743.934	5.84
744.253	5.55
744.571	5.65
744.89	5.8
745.208	5.95
745.526	5.76
745.845	5.7
746.163	5.39
746.481	5.67
746.799	5.66
747.117	5.61
747.435	5.65
747.753	5.84
748.071	5.77
748.389	5.81
748.706	5.71
749.024	5.87
749.342	5.82
749.659	6.38
749.977	5.77
750.295	6.06
750.612	6.23
750.929	6.2
751.247	6.29
751.564	6.59
751.881	6.54
752.198	7.04
752.516	6.82
752.833	7.17
753.15	6.8
753.467	7.39
753.783	7.27
754.1	7.61
754.417	7.47
754.734	7.24
755.05	7.08
755.367	7.2
755.684	6.74
756.0	6.66
756.317	6.4
756.633	6.43
756.949	6.15
757.266	6.39
757.582	6.22
757.898	6.5
758.214	6.79
758.53	6.61
758.846	6.49
759.162	6.52
759.478	6.5
759.794	6.54
760.11	6.66
760.426	6.56
760.741	6.32
761.057	6.04
761.372	5.92
761.688	5.88
762.003	6
762.319	5.85
762.634	5.98
762.949	6.11
763.265	5.95
763.58	6.04
763.895	5.98
764.21	6.08
764.525	6.27
764.84	6.19
765.155	6.06
765.47	5.9
765.785	5.86
766.099	5.83
766.414	5.59
766.729	5.68
767.043	5.37
767.358	5.35
767.672	5.41
767.987	5.4
768.301	5.75
768.615	5.89
768.929	5.91
769.244	6.08
769.558	5.97
769.872	6.37
770.186	6.58
770.5	6.65
770.814	6.59
771.127	6.61
771.441	6.37
771.755	5.83
772.069	5.33
772.382	5.44
772.696	5.74
773.009	5.36
773.323	5.3
773.636	5.13
773.95	5.12
774.263	5.3
774.576	4.83
774.889	5.38
775.202	5.72
775.515	6.09
775.828	6.2
776.141	6.08
776.454	6.44
776.767	6.26
777.08	6.55
777.393	6.96
777.705	7.01
778.018	7.06
778.33	6.72
778.643	6.37
778.955	6.54
779.268	6.58
779.58	6.75
779.892	6.93
780.205	7.06
780.517	7
780.829	7.07
781.141	7.53
781.453	7.99
781.765	8.19
782.077	8.1
782.388	7.96
782.7	7.5
783.012	7.57
783.324	7.4
783.635	7.55
783.947	7.11
784.258	6.75
784.57	6.47
784.881	6.03
785.192	7.06
785.504	7.89
785.815	8.16
786.126	7.99
786.437	7.52
786.748	7.6
787.059	7.6
787.37	7.64
787.681	7.86
787.992	7.89
788.302	8.63
788.613	7.98
788.924	7.01
789.234	6.64
789.545	7.12
789.855	7.26
790.166	7.03
790.476	6.6
790.786	6.87
791.096	6.14
791.407	6.04
791.717	5.59
792.027	5.13
792.337	5.51
792.647	5.8
792.957	5.39
793.266	4.91
793.576	5.18
793.886	5.75
794.196	5.88
794.505	10.29
794.815	9.96
795.124	10.35
795.434	10.43
795.743	10.44
796.052	9.94
796.362	10.58
796.671	11.07
796.98	11.25
797.289	10.55
797.598	9.81
797.907	5.81
798.216	6.11
798.525	5.86
798.834	5.41
799.142	5.82
799.451	6.45
799.76	6
800.068	6.18
800.377	5.91
800.685	6.41
800.994	6.96
801.302	6.76
801.61	6.9
801.918	6.6
802.227	6.51
802.535	5.91
802.843	5.74
803.151	5.52
803.459	5.29
803.767	5.37
804.074	5.65
804.382	5.91
804.69	8.07
804.998	7.74
805.305	8.31
805.613	8.76
805.92	9.11
806.228	9.49
806.535	9.27
806.842	9.1
807.15	8.78
807.457	8.55
807.764	8.61
808.071	6.21
808.378	6.7
808.685	6.69
808.992	6.55
809.299	5.97
809.605	6.35
809.912	7.08
810.219	6.66
810.525	7.42
810.832	7.32
811.138	7.17
811.445	8.22
811.751	7.24
812.058	6.81
812.364	6.98
812.67	8.03
812.976	7.38
813.282	7.66
813.588	8.37
813.894	8.17
814.2	7.61
814.506	7.87
814.812	8.01
815.118	9.13
815.423	9.48
815.729	9.18
816.035	8.09
816.34	7.32
816.646	6.9
816.951	6.15
817.256	5.03
817.562	6.11
817.867	5.67
818.172	4.75
818.477	4.22
818.782	4.86
819.087	5.59
819.392	6.01
819.697	6.38
820.002	6
820.306	6.75
820.611	7.11
820.916	7.09
821.22	7.29
821.525	7.37
821.829	7.28
822.134	6.48
822.438	6.14
822.742	5.88
823.047	6.03
823.351	6.28
823.655	6.1
823.959	6.04
824.263	5.89
824.567	6.04
824.871	5.88
825.174	5.85
825.478	8.86
825.782	9.09
826.086	9.57
826.389	9.77
826.693	9.79
826.996	9.91
827.3	10.14
827.603	10.14
827.906	9.95
828.209	10.27
828.513	10.52
828.816	7.14
829.119	6.88
829.422	6.58
829.725	6.18
830.028	6.34
830.33	6.5
830.633	7.04
830.936	7.05
831.238	6.96
831.541	6.99
831.844	6.66
832.146	6.07
832.448	6.49
832.751	6.85
833.053	7.64
833.355	7.85
833.657	7.85
833.96	6.72
834.262	6.58
834.564	6.87
834.865	6.89
835.167	8.43
835.469	8.88
835.771	8.33
836.073	8.21
836.374	8.05
836.676	7.5
836.977	7.47
837.279	7.82
837.58	8.28
837.882	8.45
838.183	8.31
838.484	7.64
838.785	8.01
839.086	8.89
839.387	9.49
839.688	9.85
839.989	10.58
840.29	10.27
840.591	10.91
840.892	11.34
841.192	12.98
841.493	12.56
841.794	11.93
842.094	10.86
842.394	11.05
842.695	26.47
842.995	27.49
843.295	27.74
843.596	29.11
843.896	30.06
844.196	31.83
844.496	30.26
844.796	31.39
845.096	32.24
845.396	33.38
845.695	33.78
845.995	11.08
846.295	9.48
846.594	10.7
846.894	11.35
847.194	10.9
847.493	9.82
847.792	8.61
848.092	8.55
848.391	7.69
848.69	8.42
848.989	9.22
849.288	9.98
849.587	10.7
849.886	9.78
850.185	10.01
850.484	11.87
850.783	13.36
851.081	14.95
851.38	15.71
851.679	16.99
851.977	16.58
852.276	14.24
852.574	12.92
852.872	13.55
853.171	14.42
853.469	14.37
853.767	10.42
854.065	8.35
854.363	9.99
854.661	10.92
854.959	11.79
855.257	14.08
855.555	16.82
855.853	17.26
856.15	17.95
856.448	16.79
856.746	15.79
857.043	16.35
857.341	20.34
857.638	22.85
857.935	21.38
858.233	19.16
858.53	17.43
858.827	18.37
859.124	18.63
859.421	18.16
859.718	19.64
860.015	18.68
860.312	19.69
860.609	16.08
860.905	12.14
861.202	11.33
861.499	13.02
861.795	15.39
862.092	15.01
862.388	16.25
862.684	16.22
862.981	15.65
863.277	16.93
863.573	15.84
863.869	17.23
864.165	14.73
864.461	13.58
864.757	13.7
865.053	12.05
865.349	9.8
865.645	9.56
865.94	7.45
866.236	7.17
866.532	6.64
866.827	11.55
867.123	9.78
867.418	13.73
867.713	15.63
868.009	14.47
868.304	13.24
868.599	14.78
868.894	13.46
869.189	15.6
869.484	14.91
869.779	15.6
870.074	10.42
870.369	11.14
870.663	10.62
870.958	12.16
871.252	11.03
871.547	12.95
871.842	13
872.136	14.35
872.43	13.51
872.725	16.9
873.019	15.81
873.313	18.01
873.607	19.34
873.901	19.59
874.195	21.93
874.489	24.16
874.783	23.81
875.077	19.94
875.37	21.71
875.664	22.97
875.958	16.82
876.251	16.93
876.545	20.42
876.838	15.84
877.132	16.06
877.425	12.3
877.718	12.74
878.011	13.11
878.305	18.36
878.598	16.34
878.891	14.42
879.184	18.48
879.476	22.07
879.769	19.01
880.062	17.56
880.355	15.68
880.647	14.25
880.94	11.78
881.232	10.38
881.525	8.36
881.817	5.12
882.11	6.35
882.402	5.86
882.694	4.63
882.986	5.13
883.278	7.63
883.57	9.39
883.862	9.44
884.154	10.21
884.446	9.85
884.738	10.25
885.03	11.41
885.321	11.34
885.613	11.67
885.904	11.44
886.196	12.07
886.487	12.46
886.779	11.88
887.07	12.08
887.361	11.76
887.652	12.76
887.943	13.11
888.234	13.67
888.525	14.43
888.816	15.73
889.107	18.02
889.398	19.4
889.689	19.09
889.979	20.84
890.27	22.51
890.56	25.21
890.851	25.93
891.141	27.4
891.432	27.36
891.722	29.07
