Data from thigh2_Reflection__2__12-16-34-660.txt Node

Date: Thu Aug 04 12:16:34 AEST 2022
User: kathy
Spectrometer: JAZA2503
Trigger mode: 0
Integration Time (sec): 2.883200E-1
Scans to average: 10
Electric dark correction enabled: true
Nonlinearity correction enabled: true
Boxcar width: 5
XAxis mode: Wavelengths
Number of Pixels in Spectrum: 2048
>>>>>Begin Spectral Data<<<<<
189.467	-59.65
189.852	-165.21
190.237	-5537.17
190.622	-421.98
191.007	-131
191.392	-204.93
191.777	-328.73
192.162	0.29
192.546	-130.44
192.931	-228.42
193.316	-169.91
193.701	-180.89
194.086	67.53
194.47	145.43
194.855	431.18
195.24	8991.73
195.624	528.06
196.009	-515.97
196.393	-238.76
196.778	1549.69
197.163	201.45
197.547	145.73
197.931	115.73
198.316	124.12
198.7	94.69
199.085	84.41
199.469	84.99
199.853	74.92
200.237	77.6
200.622	73.82
201.006	67.48
201.39	71.27
201.774	66.37
202.158	70.13
202.542	65.06
202.926	70.18
203.31	64.62
203.694	63.51
204.078	63.79
204.462	67.84
204.846	69.37
205.23	69.23
205.614	69.93
205.998	66.51
206.381	66.26
206.765	68.23
207.149	56.55
207.532	59.86
207.916	60.08
208.3	57.2
208.683	51.62
209.067	55.51
209.45	55.23
209.834	53.59
210.217	59.71
210.601	58.2
210.984	59.3
211.367	66.15
211.751	68.2
212.134	66.92
212.517	67.71
212.901	68
213.284	61.23
213.667	64.01
214.05	62.1
214.433	62.01
214.816	61.8
215.199	62.78
215.582	61
215.965	56.26
216.348	54.77
216.731	57.03
217.114	53.11
217.497	50.71
217.88	47.69
218.262	45.01
218.645	42.49
219.028	38.68
219.411	33.21
219.793	32.46
220.176	32.45
220.559	30.62
220.941	26.38
221.324	28.85
221.706	30.36
222.089	28.82
222.471	28.05
222.853	24.65
223.236	24.44
223.618	23.17
224	22.49
224.383	20.48
224.765	21.3
225.147	20.91
225.529	19.46
225.912	16.87
226.294	15.35
226.676	13.76
227.058	12.18
227.44	9.94
227.822	8.78
228.204	7.47
228.586	6.62
228.968	5.57
229.349	5.13
229.731	5.1
230.113	4.77
230.495	4.44
230.877	4.32
231.258	4.47
231.64	4.69
232.022	4.53
232.403	4.68
232.785	5.25
233.166	5.55
233.548	5.66
233.929	5.21
234.311	5.61
234.692	5.8
235.073	5.79
235.455	5.87
235.836	5.72
236.217	6.11
236.599	5.88
236.98	5.32
237.361	4.94
237.742	4.61
238.123	4.73
238.504	4.38
238.885	4.17
239.266	4.02
239.647	3.56
240.028	3.46
240.409	3.13
240.79	2.84
241.171	2.68
241.552	2.49
241.933	2.4
242.313	2.16
242.694	2.16
243.075	2.2
243.456	2.04
243.836	2.24
244.217	2.27
244.597	2.33
244.978	2.42
245.358	2.45
245.739	2.43
246.119	2.29
246.5	2.28
246.88	2.11
247.26	1.93
247.641	1.85
248.021	1.68
248.401	1.62
248.781	1.56
249.162	1.63
249.542	1.63
249.922	1.6
250.302	1.7
250.682	1.76
251.062	1.89
251.442	1.92
251.822	2.07
252.202	2.16
252.582	2.12
252.961	2.26
253.341	2.11
253.721	2.09
254.101	2.17
254.48	2.27
254.86	2.1
255.24	2.23
255.619	2.51
255.999	2.43
256.378	2.39
256.758	2.42
257.137	2.22
257.517	2.29
257.896	2.21
258.276	2.02
258.655	1.81
259.034	1.72
259.414	1.52
259.793	1.31
260.172	1.3
260.551	1.24
260.93	1.19
261.309	1.18
261.688	1.18
262.068	1.23
262.447	1.33
262.825	1.34
263.204	1.39
263.583	1.45
263.962	1.59
264.341	1.68
264.72	1.79
265.099	1.81
265.477	1.89
265.856	1.72
266.235	1.67
266.613	1.64
266.992	1.71
267.371	1.78
267.749	1.9
268.128	1.94
268.506	1.99
268.884	2.01
269.263	2.04
269.641	2
270.02	2.08
270.398	2.07
270.776	2.12
271.154	2.13
271.533	2.14
271.911	2.07
272.289	2.01
272.667	2.01
273.045	2
273.423	2.05
273.801	2.09
274.179	2.13
274.557	2.15
274.935	2.16
275.313	2.15
275.69	2.19
276.068	2.28
276.446	2.31
276.824	2.34
277.201	2.39
277.579	2.44
277.957	2.45
278.334	2.42
278.712	2.42
279.089	2.37
279.467	2.45
279.844	2.46
280.222	2.39
280.599	2.45
280.976	2.43
281.354	2.39
281.731	2.41
282.108	2.47
282.485	2.48
282.863	2.54
283.24	2.58
283.617	2.54
283.994	2.49
284.371	2.52
284.748	2.49
285.125	2.5
285.502	2.49
285.879	2.43
286.256	2.39
286.633	2.42
287.009	2.38
287.386	2.38
287.763	2.45
288.139	2.52
288.516	2.5
288.893	2.52
289.269	2.55
289.646	2.58
290.022	2.59
290.399	2.55
290.775	2.53
291.152	2.54
291.528	2.52
291.904	2.43
292.281	2.36
292.657	2.35
293.033	2.34
293.41	2.31
293.786	2.28
294.162	2.27
294.538	2.32
294.914	2.32
295.29	2.29
295.666	2.33
296.042	2.33
296.418	2.37
296.794	2.39
297.17	2.36
297.546	2.36
297.921	2.36
298.297	2.36
298.673	2.34
299.048	2.34
299.424	2.35
299.8	2.31
300.175	2.35
300.551	2.35
300.926	2.35
301.302	2.36
301.677	2.38
302.053	2.43
302.428	2.41
302.803	2.41
303.179	2.43
303.554	2.45
303.929	2.51
304.304	2.53
304.68	2.54
305.055	2.57
305.43	2.59
305.805	2.59
306.18	2.56
306.555	2.62
306.93	2.63
307.305	2.64
307.679	2.61
308.054	2.56
308.429	2.52
308.804	2.48
309.179	2.46
309.553	2.44
309.928	2.45
310.303	2.48
310.677	2.45
311.052	2.47
311.426	2.45
311.801	2.46
312.175	2.47
312.55	2.48
312.924	2.49
313.298	2.48
313.673	2.5
314.047	2.48
314.421	2.43
314.795	2.47
315.17	2.45
315.544	2.47
315.918	2.48
316.292	2.49
316.666	2.51
317.04	2.53
317.414	2.58
317.788	2.58
318.162	2.58
318.535	2.61
318.909	2.6
319.283	2.58
319.657	2.55
320.03	2.52
320.404	2.53
320.778	2.46
321.151	2.45
321.525	2.43
321.898	2.42
322.272	2.45
322.645	2.44
323.019	2.44
323.392	2.41
323.765	2.48
324.139	2.45
324.512	2.46
324.885	2.49
325.258	2.46
325.632	2.4
326.005	2.38
326.378	2.36
326.751	2.34
327.124	2.31
327.497	2.25
327.87	2.21
328.243	2.22
328.616	2.25
328.988	2.32
329.361	2.34
329.734	2.43
330.107	2.46
330.479	2.46
330.852	2.4
331.225	2.4
331.597	2.4
331.97	2.37
332.342	2.35
332.715	2.38
333.087	2.41
333.46	2.43
333.832	2.52
334.204	2.61
334.577	2.67
334.949	2.75
335.321	2.82
335.693	2.91
336.065	2.96
336.438	3.02
336.81	3.11
337.182	3.21
337.554	3.29
337.926	3.36
338.298	3.45
338.669	3.48
339.041	3.59
339.413	3.69
339.785	3.8
340.157	3.9
340.528	4
340.9	4.07
341.272	4.13
341.643	4.21
342.015	4.34
342.386	4.56
342.758	4.76
343.129	4.98
343.501	5.25
343.872	5.46
344.243	5.65
344.615	5.82
344.986	6.06
345.357	6.25
345.728	6.5
346.099	6.72
346.471	6.94
346.842	7.15
347.213	7.36
347.584	7.62
347.955	7.9
348.326	8.11
348.697	8.29
349.067	8.52
349.438	8.77
349.809	9.06
350.18	9.41
350.55	9.57
350.921	9.78
351.292	10.02
351.662	10.24
352.033	10.45
352.403	10.68
352.774	10.91
353.144	11.12
353.515	11.31
353.885	11.54
354.255	11.75
354.626	12
354.996	12.24
355.366	12.48
355.736	12.71
356.107	12.95
356.477	13.21
356.847	13.48
357.217	13.77
357.587	14.1
357.957	14.44
358.327	14.76
358.697	15.12
359.066	15.44
359.436	15.8
359.806	16.2
360.176	16.65
360.546	17.05
360.915	17.48
361.285	17.93
361.654	18.4
362.024	18.84
362.393	19.33
362.763	19.8
363.132	20.29
363.502	20.79
363.871	21.29
364.24	21.81
364.61	22.37
364.979	22.95
365.348	23.52
365.717	24.13
366.087	24.74
366.456	25.39
366.825	26.05
367.194	26.74
367.563	27.47
367.932	28.23
368.301	28.99
368.669	29.79
369.038	30.58
369.407	31.4
369.776	32.24
370.145	33.11
370.513	33.91
370.882	34.8
371.25	35.7
371.619	36.61
371.988	37.54
372.356	38.49
372.724	39.46
373.093	40.47
373.461	41.53
373.83	42.54
374.198	43.58
374.566	44.68
374.934	45.68
375.303	46.75
375.671	47.83
376.039	48.88
376.407	49.95
376.775	51.01
377.143	52.1
377.511	53.16
377.879	54.28
378.247	55.46
378.615	56.62
378.982	57.84
379.35	59.06
379.718	60.27
380.086	61.45
380.453	62.62
380.821	63.78
381.188	64.92
381.556	66.09
381.923	67.19
382.291	68.25
382.658	69.33
383.026	70.41
383.393	71.45
383.76	72.47
384.128	73.58
384.495	74.64
384.862	75.68
385.229	76.71
385.596	77.74
385.963	78.63
386.33	79.52
386.697	80.45
387.064	81.26
387.431	82.04
387.798	82.82
388.165	83.51
388.532	84.14
388.899	84.73
389.265	85.38
389.632	85.93
389.999	86.57
390.365	87.08
390.732	87.53
391.098	87.97
391.465	88.4
391.831	88.76
392.198	89.19
392.564	89.61
392.93	90.01
393.297	90.33
393.663	90.66
394.029	91.03
394.395	91.41
394.762	91.79
395.128	92.19
395.494	92.52
395.86	92.91
396.226	93.19
396.592	93.47
396.958	93.78
397.323	94.11
397.689	94.42
398.055	94.68
398.421	94.94
398.787	95.2
399.152	95.42
399.518	95.65
399.883	95.81
400.249	95.98
400.615	96.16
400.98	96.28
401.345	96.31
401.711	96.35
402.076	96.38
402.442	96.37
402.807	96.31
403.172	96.29
403.537	96.2
403.902	96.2
404.268	96.18
404.633	96.17
404.998	96.1
405.363	96.12
405.728	96.14
406.093	96.09
406.457	96.09
406.822	96.14
407.187	96.11
407.552	96.16
407.917	96.2
408.281	96.25
408.646	96.32
409.011	96.38
409.375	96.38
409.74	96.35
410.104	96.32
410.469	96.28
410.833	96.24
411.197	96.26
411.562	96.22
411.926	96.11
412.29	96.1
412.655	96.02
413.019	95.98
413.383	95.99
413.747	96.05
414.111	96.15
414.475	96.25
414.839	96.29
415.203	96.45
415.567	96.55
415.931	96.69
416.295	96.74
416.658	96.75
417.022	96.79
417.386	96.76
417.749	96.66
418.113	96.59
418.477	96.52
418.84	96.55
419.204	96.46
419.567	96.45
419.931	96.46
420.294	96.52
420.657	96.66
421.021	96.75
421.384	96.94
421.747	97.08
422.11	97.25
422.473	97.36
422.836	97.43
423.199	97.46
423.562	97.48
423.925	97.5
424.288	97.46
424.651	97.4
425.014	97.35
425.377	97.27
425.74	97.28
426.102	97.21
426.465	97.24
426.828	97.27
427.19	97.33
427.553	97.4
427.916	97.47
428.278	97.42
428.641	97.44
429.003	97.42
429.365	97.32
429.728	97.26
430.09	97.12
430.452	96.91
430.814	96.7
431.177	96.56
431.539	96.49
431.901	96.38
432.263	96.38
432.625	96.37
432.987	96.42
433.349	96.56
433.711	96.71
434.072	96.95
434.434	97.24
434.796	97.51
435.158	97.8
435.519	97.93
435.881	98.07
436.243	98.2
436.604	98.24
436.966	98.24
437.327	98.16
437.689	98.05
438.05	97.92
438.411	97.76
438.773	97.66
439.134	97.52
439.495	97.45
439.856	97.4
440.218	97.33
440.579	97.31
440.94	97.34
441.301	97.43
441.662	97.53
442.023	97.56
442.384	97.53
442.745	97.56
443.105	97.59
443.466	97.58
443.827	97.57
444.188	97.53
444.548	97.55
444.909	97.49
445.269	97.38
445.63	97.29
445.99	97.22
446.351	97.22
446.711	97.15
447.072	97.09
447.432	97.13
447.792	97.11
448.153	97.18
448.513	97.09
448.873	97.09
449.233	97.06
449.593	96.98
449.953	96.93
450.313	96.83
450.673	96.74
451.033	96.68
451.393	96.57
451.753	96.51
452.113	96.81
452.472	96.77
452.832	96.69
453.192	96.63
453.551	96.54
453.911	96.39
454.271	96.22
454.63	95.99
454.989	95.76
455.349	95.6
455.708	95.43
456.068	95.1
456.427	95.04
456.786	95.04
457.145	95.09
457.505	95.16
457.864	95.32
458.223	95.59
458.582	95.92
458.941	96.3
459.3	96.6
459.659	96.84
460.018	97.03
460.376	97.19
460.735	97.25
461.094	97.31
461.453	97.38
461.811	97.37
462.17	97.27
462.529	97.19
462.887	97.04
463.246	96.98
463.604	96.98
463.963	96.98
464.321	97.05
464.679	97.06
465.038	97.08
465.396	97.11
465.754	97.21
466.112	97.36
466.47	97.56
466.828	97.79
467.186	97.93
467.544	98.01
467.902	98.08
468.26	97.99
468.618	98.03
468.976	97.99
469.334	97.94
469.692	97.77
470.049	97.55
470.407	97.22
470.765	96.94
471.122	96.78
471.48	96.7
471.837	96.68
472.195	96.69
472.552	96.74
472.909	96.77
473.267	96.79
473.624	96.8
473.981	96.83
474.338	96.85
474.696	96.87
475.053	96.8
475.41	96.8
475.767	96.76
476.124	96.69
476.481	96.59
476.838	96.45
477.194	96.34
477.551	96.28
477.908	96.23
478.265	96.2
478.621	96.13
478.978	96.09
479.335	96.02
479.691	95.99
480.048	95.97
480.404	95.88
480.761	95.91
481.117	95.93
481.473	95.89
481.83	95.86
482.186	95.82
482.542	95.79
482.898	95.77
483.255	95.74
483.611	95.68
483.967	95.66
484.323	95.71
484.679	95.69
485.035	95.66
485.39	95.65
485.746	95.69
486.102	95.69
486.458	95.72
486.814	95.77
487.169	95.77
487.525	95.78
487.88	95.79
488.236	95.74
488.591	95.76
488.947	95.7
489.302	95.66
489.658	95.58
490.013	95.49
490.368	95.38
490.723	95.23
491.079	95.11
491.434	95.05
491.789	95
492.144	94.98
492.499	94.95
492.854	94.97
493.209	95.03
493.564	95.07
493.919	95.15
494.273	95.27
494.628	95.34
494.983	95.41
495.338	95.47
495.692	95.43
496.047	95.39
496.401	95.29
496.756	95.19
497.11	95.02
497.465	94.87
497.819	94.69
498.173	94.53
498.528	94.39
498.882	94.28
499.236	94.05
499.59	93.86
499.944	93.69
500.298	93.57
500.652	93.46
501.006	93.42
501.36	93.45
501.714	93.49
502.068	93.54
502.422	93.61
502.776	93.73
503.129	93.95
503.483	94.27
503.837	94.63
504.19	95.01
504.544	95.34
504.897	95.54
505.251	95.64
505.604	95.66
505.958	95.69
506.311	95.7
506.664	95.62
507.017	95.49
507.371	95.33
507.724	95.11
508.077	94.93
508.43	94.85
508.783	94.89
509.136	94.93
509.489	95.05
509.842	95.12
510.195	95.15
510.547	95.22
510.9	95.28
511.253	95.3
511.606	95.31
511.958	95.2
512.311	95.06
512.663	94.82
513.016	94.62
513.368	94.4
513.721	94.24
514.073	94.08
514.425	93.96
514.778	93.86
515.13	93.84
515.482	93.85
515.834	93.93
516.186	94.07
516.538	94.27
516.89	94.57
517.242	94.83
517.594	95.11
517.946	95.36
518.298	95.58
518.65	95.79
519.001	95.92
519.353	95.96
519.705	95.96
520.056	95.9
520.408	95.77
520.759	95.6
521.111	95.51
521.462	95.37
521.814	95.38
522.165	95.35
522.516	95.37
522.868	95.34
523.219	95.38
523.57	95.34
523.921	95.34
524.272	95.33
524.623	95.28
524.974	95.15
525.325	95.05
525.676	94.92
526.027	94.77
526.378	94.62
526.728	94.49
527.079	94.4
527.43	94.4
527.78	94.31
528.131	94.32
528.481	94.26
528.832	94.34
529.182	94.36
529.533	94.36
529.883	94.47
530.233	94.46
530.584	94.47
530.934	94.42
531.284	94.39
531.634	94.45
531.984	94.43
532.334	94.39
532.684	94.32
533.034	94.29
533.384	94.29
533.734	94.21
534.084	94.18
534.434	94.19
534.783	94.21
535.133	94.15
535.483	94.08
535.832	94.04
536.182	94.03
536.531	94.05
536.881	94.04
537.23	94.03
537.58	93.96
537.929	93.88
538.278	94.73
538.628	94.67
538.977	94.62
539.326	94.59
539.675	94.55
540.024	94.55
540.373	94.5
540.722	94.48
541.071	94.44
541.42	94.55
541.769	94.64
542.117	93.81
542.466	93.87
542.815	93.94
543.163	93.99
543.512	94.03
543.861	94.04
544.209	94.08
544.558	94.04
544.906	94.04
545.254	94.01
545.603	94.01
545.951	94.05
546.299	94.11
546.647	94.16
546.996	94.22
547.344	94.27
547.692	94.36
548.04	94.44
548.388	94.56
548.736	94.62
549.083	94.68
549.431	94.77
549.779	94.76
550.127	94.83
550.475	94.83
550.822	94.83
551.17	94.93
551.517	94.98
551.865	95.01
552.212	95.08
552.56	95.2
552.907	95.29
553.254	95.24
553.602	95.29
553.949	95.31
554.296	95.32
554.643	95.28
554.99	95.24
555.337	95.19
555.684	95.16
556.031	95.13
556.378	95.09
556.725	95.08
557.072	95.13
557.419	95.13
557.765	95.05
558.112	95.17
558.459	95.26
558.805	95.28
559.152	95.33
559.498	95.37
559.845	95.46
560.191	95.49
560.538	95.5
560.884	95.48
561.23	95.49
561.576	95.53
561.923	95.42
562.269	95.43
562.615	95.45
562.961	95.45
563.307	95.48
563.653	95.47
563.999	95.43
564.344	95.5
564.69	95.62
565.036	95.65
565.382	95.76
565.727	95.88
566.073	95.87
566.419	95.89
566.764	95.96
567.11	95.97
567.455	95.92
567.8	95.97
568.146	95.89
568.491	95.75
568.836	95.79
569.181	95.74
569.527	95.62
569.872	95.62
570.217	95.59
570.562	95.54
570.907	95.52
571.252	95.55
571.597	95.56
571.941	95.62
572.286	95.85
572.631	95.86
572.976	95.92
573.32	95.97
573.665	96.06
574.009	96.15
574.354	96.26
574.698	96.28
575.043	96.39
575.387	96.45
575.731	96.48
576.076	96.52
576.42	96.58
576.764	96.6
577.108	96.61
577.452	96.64
577.796	96.67
578.14	96.67
578.484	96.67
578.828	96.65
579.172	96.59
579.516	96.48
579.86	96.42
580.203	96.35
580.547	96.3
580.891	96.17
581.234	96.12
581.578	95.99
581.921	95.99
582.264	95.89
582.608	95.86
582.951	95.83
583.294	95.77
583.638	95.67
583.981	95.66
584.324	95.66
584.667	95.65
585.01	95.65
585.353	95.66
585.696	95.66
586.039	95.66
586.382	95.69
586.725	95.79
587.067	95.81
587.41	95.88
587.753	95.9
588.095	96.01
588.438	96.04
588.781	96.11
589.123	96.17
589.465	96.21
589.808	96.23
590.15	96.33
590.492	96.39
590.835	96.43
591.177	96.44
591.519	96.45
591.861	96.5
592.203	96.53
592.545	96.52
592.887	96.51
593.229	96.5
593.571	96.48
593.913	96.43
594.254	96.37
594.596	96.36
594.938	96.35
595.279	96.32
595.621	96.26
595.963	96.29
596.304	96.31
596.645	96.28
596.987	96.27
597.328	96.22
597.669	96.21
598.011	96.21
598.352	96.16
598.693	96.18
599.034	96.24
599.375	96.25
599.716	96.26
600.057	96.27
600.398	96.3
600.739	96.29
601.08	96.29
601.42	96.32
601.761	96.36
602.102	96.38
602.442	96.41
602.783	96.39
603.123	96.38
603.464	96.36
603.804	96.33
604.145	96.31
604.485	96.3
604.825	96.25
605.166	96.25
605.506	96.25
605.846	96.3
606.186	96.28
606.526	96.18
606.866	96.08
607.206	95.99
607.546	95.91
607.886	95.87
608.225	95.86
608.565	95.86
608.905	95.83
609.245	95.81
609.584	95.74
609.924	95.7
610.263	95.71
610.603	95.71
610.942	95.66
611.281	95.6
611.621	95.58
611.96	95.56
612.299	95.53
612.638	95.52
612.978	95.46
613.317	95.39
613.656	95.36
613.995	95.35
614.334	95.37
614.672	95.38
615.011	95.39
615.35	95.42
615.689	95.4
616.027	95.38
616.366	95.44
616.705	95.46
617.043	95.41
617.382	95.37
617.72	95.31
618.059	95.27
618.397	95.27
618.735	95.27
619.073	95.26
619.412	95.26
619.75	95.23
620.088	95.23
620.426	95.29
620.764	95.3
621.102	95.32
621.44	95.35
621.778	95.33
622.115	95.31
622.453	95.27
622.791	95.26
623.129	95.25
623.466	95.2
623.804	95.17
624.141	95.12
624.479	95.11
624.816	95.1
625.153	95.09
625.491	95.06
625.828	95.07
626.165	95.1
626.502	95.09
626.84	95.09
627.177	95.07
627.514	95.06
627.851	95.07
628.188	95.17
628.524	95.16
628.861	95.21
629.198	95.21
629.535	95.27
629.871	95.38
630.208	95.43
630.545	95.42
630.881	95.47
631.218	95.48
631.554	95.51
631.89	95.47
632.227	95.49
632.563	95.57
632.899	95.66
633.235	95.75
633.572	95.7
633.908	95.65
634.244	95.71
634.58	95.73
634.916	95.78
635.251	95.76
635.587	95.76
635.923	95.83
636.259	95.76
636.595	95.76
636.93	95.8
637.266	95.93
637.601	96.06
637.937	96.12
638.272	96.12
638.608	96.09
638.943	96.04
639.278	96.03
639.613	96.06
639.949	96.18
640.284	96.16
640.619	96.09
640.954	96.07
641.289	96.02
641.624	96.01
641.959	96.02
642.294	96.06
642.628	96.1
642.963	96.12
643.298	96.07
643.632	96.12
643.967	96.1
644.302	96.07
644.636	96.11
644.971	96.08
645.305	96.01
645.639	96.14
645.974	96.08
646.308	96.14
646.642	96.2
646.976	96.24
647.31	96.16
647.644	96.17
647.978	96.22
648.312	96.11
648.646	96.2
648.98	96.33
649.314	96.26
649.647	96.33
649.981	96.37
650.315	96.44
650.648	96.51
650.982	96.53
651.315	96.57
651.649	96.67
651.982	96.8
652.316	96.74
652.649	96.65
652.982	96.69
653.315	96.68
653.648	96.75
653.982	96.76
654.315	96.83
654.648	96.84
654.981	96.76
655.313	96.83
655.646	96.76
655.979	96.96
656.312	96.94
656.644	97.09
656.977	97.21
657.31	97.18
657.642	97.06
657.975	96.94
658.307	97
658.64	97.06
658.972	96.87
659.304	96.84
659.636	96.72
659.969	96.78
660.301	96.61
660.633	96.53
660.965	96.56
661.297	96.68
661.629	96.77
661.961	96.75
662.292	96.77
662.624	96.86
662.956	96.95
663.288	97.13
663.619	97.26
663.951	97.47
664.282	97.58
664.614	97.6
664.945	97.61
665.276	97.61
665.608	97.63
665.939	97.77
666.27	97.84
666.601	97.81
666.933	97.72
667.264	97.69
667.595	97.59
667.926	97.57
668.256	97.61
668.587	97.57
668.918	97.54
669.249	97.54
669.58	97.37
669.91	97.43
670.241	97.43
670.571	97.4
670.902	97.34
671.232	97.18
671.563	97.14
671.893	97.22
672.223	97.36
672.554	97.3
672.884	97.34
673.214	97.52
673.544	97.6
673.874	97.56
674.204	97.58
674.534	97.59
674.864	97.58
675.194	97.68
675.524	97.59
675.853	97.44
676.183	97.51
676.513	97.46
676.842	97.3
677.172	97.33
677.501	97.44
677.831	97.38
678.16	97.39
678.489	97.66
678.819	97.56
679.148	97.52
679.477	97.64
679.806	97.66
680.135	97.68
680.464	97.76
680.793	97.67
681.122	97.67
681.451	97.64
681.78	97.66
682.108	97.45
682.437	97.5
682.766	97.49
683.094	97.48
683.423	97.51
683.751	97.56
684.08	97.6
684.408	97.54
684.737	97.51
685.065	97.57
685.393	97.61
685.721	97.78
686.049	97.83
686.377	97.98
686.705	97.97
687.033	98.01
687.361	97.97
687.689	98.15
688.017	98.16
688.345	98.25
688.673	98.41
689.0	98.29
689.328	98.25
689.655	98.27
689.983	98.14
690.31	98.22
690.638	98.22
690.965	98.33
691.292	98.17
691.62	98.19
691.947	98.19
692.274	97.94
692.601	98.08
692.928	98.26
693.255	98.19
693.582	98.25
693.909	98.18
694.236	98.33
694.562	98.23
694.889	98.19
695.216	98.08
695.542	98.01
695.869	98.22
696.196	98.15
696.522	98.06
696.848	98
697.175	97.89
697.501	97.74
697.827	97.63
698.154	97.54
698.48	97.36
698.806	97.39
699.132	97.41
699.458	97.35
699.784	97.38
700.11	97.28
700.435	97.37
700.761	97.34
701.087	97.24
701.413	97.23
701.738	97.34
702.064	97.43
702.389	97.61
702.715	97.69
703.04	97.67
703.366	97.74
703.691	97.92
704.016	97.92
704.341	98.16
704.666	98.63
704.992	98.59
705.317	98.59
705.642	98.8
705.967	98.68
706.291	98.74
706.616	98.74
706.941	98.87
707.266	98.94
707.59	98.89
707.915	98.77
708.24	98.51
708.564	98.58
708.889	98.49
709.213	98.58
709.537	98.6
709.862	98.37
710.186	98.29
710.51	98.13
710.834	97.87
711.158	97.83
711.482	97.82
711.806	97.83
712.13	97.62
712.454	97.7
712.778	97.48
713.102	97.44
713.426	97.57
713.749	97.71
714.073	97.7
714.396	97.71
714.72	97.77
715.043	97.79
715.367	97.75
715.69	97.89
716.013	97.81
716.337	97.86
716.66	97.76
716.983	97.9
717.306	97.93
717.629	97.96
717.952	98.12
718.275	98.1
718.598	97.94
718.921	98.06
719.243	98.26
719.566	98.19
719.889	98.24
720.211	98.51
720.534	98.23
720.856	98.21
721.179	98.34
721.501	98.41
721.823	98.56
722.146	98.81
722.468	98.93
722.79	98.9
723.112	99.17
723.434	99.15
723.756	99.09
724.078	99.2
724.4	99.04
724.722	98.91
725.044	98.75
725.366	98.61
725.687	98.63
726.009	98.29
726.33	98
726.652	97.74
726.973	97.53
727.295	97.59
727.616	97.44
727.938	97.43
728.259	97.54
728.58	97.36
728.901	97.37
729.222	97.25
729.543	97.3
729.864	97.3
730.185	97.44
730.506	97.41
730.827	97.33
731.148	97.38
731.468	97.25
731.789	97.12
732.11	97.17
732.43	97.13
732.751	97.22
733.071	97.23
733.392	97.31
733.712	97.43
734.032	97.63
734.352	97.69
734.673	97.69
734.993	97.94
735.313	98.01
735.633	98.43
735.953	98.64
736.273	98.57
736.593	98.57
736.912	98.61
737.232	98.41
737.552	98.32
737.871	98.06
738.191	97.89
738.51	97.82
738.83	97.7
739.149	97.57
739.469	97.42
739.788	97.64
740.107	97.83
740.426	97.95
740.746	97.99
741.065	98.05
741.384	98.17
741.703	98.43
742.022	98.46
742.341	98.55
742.659	98.41
742.978	98.42
743.297	98.14
743.615	98.26
743.934	98.01
744.253	97.73
744.571	97.71
744.89	97.88
745.208	97.95
745.526	98.09
745.845	97.98
746.163	97.87
746.481	98.11
746.799	98.26
747.117	98.26
747.435	98.58
747.753	99.14
748.071	99.35
748.389	98.98
748.706	98.83
749.024	98.58
749.342	98.62
749.659	98.66
749.977	98.45
750.295	98.44
750.612	97.85
750.929	97.9
751.247	97.82
751.564	97.69
751.881	98.3
752.198	98.52
752.516	98.94
752.833	99.08
753.15	98.86
753.467	98.77
753.783	98.58
754.1	99.1
754.417	98.87
754.734	98.81
755.05	98.94
755.367	98.51
755.684	98.4
756.0	98.23
756.317	98.13
756.633	97.99
756.949	98.09
757.266	98.13
757.582	97.99
757.898	97.72
758.214	97.72
758.53	97.51
758.846	97.22
759.162	97.19
759.478	97.12
759.794	97.03
760.11	97.25
760.426	97.21
760.741	97.04
761.057	96.95
761.372	97.28
761.688	97.16
762.003	97.11
762.319	97.05
762.634	96.88
762.949	96.51
763.265	96.65
763.58	96.61
763.895	96.59
764.21	96.85
764.525	96.84
764.84	96.64
765.155	96.81
765.47	96.85
765.785	97.18
766.099	97.42
766.414	97.65
766.729	97.53
767.043	97.79
767.358	97.7
767.672	97.77
767.987	97.86
768.301	98.38
768.615	98.23
768.929	98.63
769.244	98.41
769.558	98.63
769.872	98.82
770.186	98.7
770.5	98.56
770.814	98.62
771.127	98.52
771.441	98.79
771.755	98.8
772.069	98.99
772.382	98.92
772.696	99.08
773.009	98.65
773.323	98.52
773.636	98.72
773.95	98.73
774.263	98.74
774.576	98.59
774.889	98.66
775.202	98
775.515	97.53
775.828	97.03
776.141	97.25
776.454	96.81
776.767	96.51
777.08	96.71
777.393	96.88
777.705	96.88
778.018	97.15
778.33	96.24
778.643	96.41
778.955	96.98
779.268	97.05
779.58	97.17
779.892	98.13
780.205	98.82
780.517	98.48
780.829	98.88
781.141	99.28
781.453	98.8
781.765	99.32
782.077	99.68
782.388	99.45
782.7	99.34
783.012	99.28
783.324	98.61
783.635	98.11
783.947	98.52
784.258	97.47
784.57	97.26
784.881	97.92
785.192	98.13
785.504	97.03
785.815	97.09
786.126	97.71
786.437	97.47
786.748	97.35
787.059	97.67
787.37	96.81
787.681	97.33
787.992	97.48
788.302	97.37
788.613	97.25
788.924	97.98
789.234	98.06
789.545	97.73
789.855	97.6
790.166	97.28
790.476	97.16
790.786	97.87
791.096	98.08
791.407	98.18
791.717	98.02
792.027	97.71
792.337	97.59
792.647	97.71
792.957	98.39
793.266	98.77
793.576	99.67
793.886	99.51
794.196	99.71
794.505	103.77
794.815	103.72
795.124	103.12
795.434	103.42
795.743	103.27
796.052	102.83
796.362	101.73
796.671	100.76
796.98	100.84
797.289	101.07
797.598	100.8
797.907	96.6
798.216	96.03
798.525	95.75
798.834	95.38
799.142	96.05
799.451	96.39
799.76	96.9
800.068	97.66
800.377	97.11
800.685	97.7
800.994	97.55
801.302	97.64
801.61	97.85
801.918	98.9
802.227	99.79
802.535	99.23
802.843	98.96
803.151	98.78
803.459	98.43
803.767	98.85
804.074	98.75
804.382	99.28
804.69	101.31
804.998	101.69
805.305	101.33
805.613	100.25
805.92	100.01
806.228	100.46
806.535	99.61
806.842	99.81
807.15	99.6
807.457	99.03
807.764	98.54
808.071	96.17
808.378	95.38
808.685	96.1
808.992	96.46
809.299	96.79
809.605	97
809.912	98.49
810.219	99.28
810.525	99.54
810.832	99.28
811.138	99.29
811.445	99.52
811.751	100.52
812.058	99.8
812.364	99.43
812.67	99.11
812.976	98.1
813.282	97.28
813.588	96.92
813.894	96.82
814.2	96.5
814.506	96.53
814.812	96.16
815.118	95.6
815.423	95.35
815.729	95.96
816.035	96.17
816.34	96.76
816.646	97.32
816.951	96.41
817.256	96.56
817.562	97.44
817.867	96.9
818.172	97.91
818.477	97.84
818.782	97.94
819.087	97.86
819.392	97.46
819.697	96.36
820.002	96.15
820.306	96.25
820.611	95.39
820.916	94.87
821.22	94.49
821.525	92.82
821.829	91.99
822.134	91.35
822.438	90.99
822.742	91.46
823.047	91.84
823.351	92
823.655	92.18
823.959	92.4
824.263	92.54
824.567	92.91
824.871	93.44
825.174	94.01
825.478	94.33
825.782	94.84
826.086	95.04
826.389	95.41
826.693	95.51
826.996	95.93
827.3	96.38
827.603	96.82
827.906	97.42
828.209	98.3
828.513	99.14
828.816	100.32
829.119	101.15
829.422	101.6
829.725	101.86
830.028	102.41
830.33	102.27
830.633	102.54
830.936	102.63
831.238	102.17
831.541	101.48
831.844	100.54
832.146	100.48
832.448	99.89
832.751	99.89
833.053	100.36
833.355	99.92
833.657	100.38
833.96	100.32
834.262	100
834.564	100.43
834.865	100.69
835.167	102.18
835.469	101.14
835.771	101.14
836.073	100.93
836.374	100.12
836.676	100.31
836.977	100.64
837.279	100.74
837.58	100.98
837.882	100.8
838.183	100.37
838.484	97.99
838.785	97.95
839.086	97.25
839.387	97
839.688	96.75
839.989	97.13
840.29	97.32
840.591	97.83
840.892	98.02
841.192	99.31
841.493	98.89
841.794	99.91
842.094	99.99
842.394	99.27
842.695	99.62
842.995	100.12
843.295	99.19
843.596	98.42
843.896	97.47
844.196	97.33
844.496	95.11
844.796	96
845.096	96.39
845.396	96.06
845.695	97.84
845.995	98.01
846.295	100.02
846.594	101.85
846.894	101.56
847.194	100.66
847.493	101.29
847.792	101.21
848.092	100.69
848.391	99.78
848.69	100.11
848.989	100.03
849.288	100.63
849.587	98.89
849.886	97.61
850.185	97.24
850.484	100.68
850.783	101.99
851.081	104.21
851.38	104.8
851.679	103.96
851.977	106.5
852.276	104.32
852.574	103.46
852.872	103.05
853.171	102.16
853.469	102.22
853.767	98.9
854.065	96.59
854.363	91.78
854.661	89.48
854.959	89.48
855.257	85.95
855.555	87.55
855.853	89.16
856.15	88.66
856.448	89.08
856.746	92.76
857.043	91.65
857.341	93.22
857.638	99.16
857.935	100.61
858.233	101.84
858.53	102.18
858.827	101.95
859.124	100.09
859.421	98.73
859.718	98.39
860.015	96.03
860.312	96.57
860.609	96.19
860.905	96.07
861.202	97.08
861.499	98.12
861.795	100.03
862.092	103.88
862.388	102.38
862.684	105.37
862.981	110.4
863.277	111.81
863.573	115.41
863.869	114.12
864.165	108.94
864.461	109.44
864.757	107.94
865.053	107.46
865.349	104.75
865.645	107.05
865.94	107.64
866.236	101.83
866.532	100.68
866.827	100.18
867.123	98.94
867.418	99.88
867.713	98.58
868.009	97.56
868.304	97.48
868.599	96.33
868.894	95.3
869.189	94.75
869.484	98.36
869.779	99.29
870.074	97.25
870.369	100.84
870.663	101.53
870.958	100.14
871.252	101.4
871.547	98.68
871.842	99.35
872.136	99.88
872.43	97.81
872.725	97.91
873.019	95.43
873.313	96.88
873.607	94.43
873.901	95.22
874.195	97.6
874.489	96.92
874.783	95.58
875.077	93.51
875.37	95.07
875.664	94.27
875.958	95.79
876.251	96.45
876.545	97.99
876.838	96.28
877.132	98.21
877.425	96.5
877.718	97.78
878.011	102.25
878.305	102.72
878.598	103.04
878.891	105.78
879.184	104.07
879.476	105.84
879.769	102.46
880.062	102.79
880.355	100.11
880.647	100.87
880.94	97.86
881.232	95.56
881.525	94.71
881.817	89.59
882.11	86.53
882.402	84.73
882.694	83.21
882.986	83.26
883.278	84.66
883.57	85.76
883.862	86.31
884.154	86.97
884.446	87.86
884.738	88.28
885.03	89.5
885.321	90.77
885.613	91.4
885.904	92.76
886.196	93.83
886.487	94.71
886.779	95.13
887.07	96.33
887.361	98.84
887.652	100.4
887.943	103.19
888.234	106.08
888.525	108.31
888.816	111.27
889.107	112.85
889.398	115.49
889.689	116.36
889.979	118.76
890.27	118.61
890.56	117.93
890.851	117.88
891.141	115.86
891.432	111.83
891.722	109.62
