Data from groin1_Reflection__0__15-26-04-479.txt Node

Date: Thu Aug 04 15:26:04 AEST 2022
User: kathy
Spectrometer: JAZA2503
Trigger mode: 0
Integration Time (sec): 2.439700E-1
Scans to average: 10
Electric dark correction enabled: true
Nonlinearity correction enabled: true
Boxcar width: 5
XAxis mode: Wavelengths
Number of Pixels in Spectrum: 2048
>>>>>Begin Spectral Data<<<<<
189.467	296.47
189.852	152.44
190.237	171.82
190.622	159.23
191.007	187.78
191.392	111.5
191.777	77.61
192.162	30.09
192.546	54.62
192.931	-266.62
193.316	201.59
193.701	329.53
194.086	137.32
194.47	183.48
194.855	-4196.99
195.24	-848.01
195.624	371.37
196.009	250.2
196.393	294.42
196.778	680.22
197.163	243.53
197.547	167.46
197.931	136.46
198.316	107.4
198.7	89.83
199.085	79.11
199.469	75.64
199.853	72.08
200.237	63.88
200.622	54.27
201.006	59.78
201.39	55.01
201.774	47.64
202.158	52.06
202.542	46.87
202.926	39.42
203.31	31.54
203.694	20.33
204.078	16.4
204.462	20.45
204.846	24.87
205.23	19.81
205.614	24.82
205.998	30.13
206.381	28.92
206.765	31.48
207.149	34.7
207.532	33.52
207.916	27.34
208.3	29.91
208.683	31.96
209.067	38.22
209.45	33.27
209.834	35.3
210.217	32.43
210.601	29.53
210.984	32.4
211.367	35.76
211.751	33.18
212.134	36.54
212.517	37.77
212.901	37.32
213.284	32.24
213.667	37.16
214.05	33.12
214.433	34.17
214.816	36.96
215.199	35.55
215.582	35.4
215.965	35.45
216.348	40.96
216.731	40.92
217.114	37.39
217.497	37.04
217.88	32.2
218.262	30.53
218.645	31.09
219.028	30.5
219.411	28.49
219.793	25.4
220.176	26.55
220.559	24.4
220.941	21.48
221.324	25.17
221.706	29.48
222.089	29.02
222.471	29.09
222.853	26.43
223.236	23.59
223.618	23.24
224	22.97
224.383	21.29
224.765	17.33
225.147	17.02
225.529	13.22
225.912	8.35
226.294	6.58
226.676	4.94
227.058	2.73
227.44	1.5
227.822	1.29
228.204	1.14
228.586	1.2
228.968	1.73
229.349	2.14
229.731	2.38
230.113	2.13
230.495	2.44
230.877	2.79
231.258	3.26
231.64	3.61
232.022	3.33
232.403	3.61
232.785	3.71
233.166	3.37
233.548	2.58
233.929	2.02
234.311	3.05
234.692	2.78
235.073	2.66
235.455	3.1
235.836	3.94
236.217	4.1
236.599	3.8
236.98	4.25
237.361	4.31
237.742	4.49
238.123	4.7
238.504	4.15
238.885	4.27
239.266	4.28
239.647	3.77
240.028	3.03
240.409	2.99
240.79	2.95
241.171	2.45
241.552	2.6
241.933	2.43
242.313	2.59
242.694	2.63
243.075	2.64
243.456	2.43
243.836	2.34
244.217	2.4
244.597	2.39
244.978	2.25
245.358	2.41
245.739	2.34
246.119	2.38
246.5	2.23
246.88	2.11
247.26	1.94
247.641	1.93
248.021	1.96
248.401	1.85
248.781	1.84
249.162	1.99
249.542	1.88
249.922	1.78
250.302	1.89
250.682	1.81
251.062	1.83
251.442	1.9
251.822	1.99
252.202	2.11
252.582	2.31
252.961	2.4
253.341	2.23
253.721	2.47
254.101	2.67
254.48	2.52
254.86	2.62
255.24	2.71
255.619	2.68
255.999	2.71
256.378	2.67
256.758	2.58
257.137	2.46
257.517	2.2
257.896	2.03
258.276	1.92
258.655	1.69
259.034	1.6
259.414	1.49
259.793	1.44
260.172	1.38
260.551	1.33
260.93	1.24
261.309	1.23
261.688	1.33
262.068	1.26
262.447	1.23
262.825	1.29
263.204	1.22
263.583	1.19
263.962	1.25
264.341	1.26
264.72	1.21
265.099	1.29
265.477	1.29
265.856	1.24
266.235	1.32
266.613	1.21
266.992	1.25
267.371	1.26
267.749	1.39
268.128	1.32
268.506	1.29
268.884	1.38
269.263	1.3
269.641	1.26
270.02	1.29
270.398	1.22
270.776	1.27
271.154	1.27
271.533	1.37
271.911	1.33
272.289	1.33
272.667	1.38
273.045	1.32
273.423	1.31
273.801	1.35
274.179	1.29
274.557	1.4
274.935	1.46
275.313	1.49
275.69	1.47
276.068	1.47
276.446	1.49
276.824	1.37
277.201	1.36
277.579	1.38
277.957	1.29
278.334	1.25
278.712	1.19
279.089	1.1
279.467	1.03
279.844	1.07
280.222	1.04
280.599	1.04
280.976	1.16
281.354	1.14
281.731	1.12
282.108	1.21
282.485	1.24
282.863	1.21
283.24	1.25
283.617	1.3
283.994	1.3
284.371	1.29
284.748	1.3
285.125	1.27
285.502	1.36
285.879	1.38
286.256	1.35
286.633	1.43
287.009	1.5
287.386	1.51
287.763	1.52
288.139	1.49
288.516	1.57
288.893	1.63
289.269	1.68
289.646	1.64
290.022	1.74
290.399	1.77
290.775	1.77
291.152	1.81
291.528	1.86
291.904	1.87
292.281	1.93
292.657	1.95
293.033	1.98
293.41	2.05
293.786	2.12
294.162	2.16
294.538	2.24
294.914	2.33
295.29	2.4
295.666	2.51
296.042	2.62
296.418	2.7
296.794	2.75
297.17	2.86
297.546	2.93
297.921	3
298.297	3.07
298.673	3.16
299.048	3.24
299.424	3.3
299.8	3.36
300.175	3.44
300.551	3.53
300.926	3.65
301.302	3.73
301.677	3.8
302.053	3.94
302.428	4.04
302.803	4.13
303.179	4.21
303.554	4.31
303.929	4.38
304.304	4.5
304.68	4.57
305.055	4.66
305.43	4.73
305.805	4.81
306.18	4.83
306.555	4.89
306.93	4.95
307.305	4.98
307.679	5
308.054	5.01
308.429	5
308.804	5.04
309.179	5.06
309.553	5.08
309.928	5.05
310.303	5.07
310.677	5.11
311.052	5.13
311.426	5.15
311.801	5.2
312.175	5.27
312.55	5.34
312.924	5.38
313.298	5.43
313.673	5.45
314.047	5.52
314.421	5.57
314.795	5.59
315.17	5.66
315.544	5.74
315.918	5.77
316.292	5.87
316.666	5.96
317.04	6.07
317.414	6.17
317.788	6.3
318.162	6.5
318.535	6.67
318.909	6.84
319.283	7.03
319.657	7.17
320.03	7.41
320.404	7.61
320.778	8.01
321.151	8.56
321.525	9.22
321.898	9.94
322.272	10.72
322.645	11.66
323.019	12.6
323.392	13.63
323.765	14.84
324.139	16.02
324.512	17.36
324.885	18.72
325.258	20.02
325.632	21.08
326.005	22.05
326.378	22.93
326.751	23.48
327.124	23.97
327.497	24.24
327.87	24.6
328.243	24.82
328.616	25
328.988	25.14
329.361	25.17
329.734	25.16
330.107	25.04
330.479	24.99
330.852	24.74
331.225	24.62
331.597	24.48
331.97	24.26
332.342	23.99
332.715	23.81
333.087	23.6
333.46	23.42
333.832	23.32
334.204	23.25
334.577	23.15
334.949	23.08
335.321	23.01
335.693	22.74
336.065	22.6
336.438	22.44
336.81	22.27
337.182	22.09
337.554	21.96
337.926	21.89
338.298	21.74
338.669	21.58
339.041	21.47
339.413	21.35
339.785	21.29
340.157	21.2
340.528	21.2
340.9	21.15
341.272	21.09
341.643	21.03
342.015	21.04
342.386	21.13
342.758	21.29
343.129	21.44
343.501	21.6
343.872	21.63
344.243	21.64
344.615	21.63
344.986	21.47
345.357	21.44
345.728	21.44
346.099	21.47
346.471	21.45
346.842	21.45
347.213	21.49
347.584	21.54
347.955	21.57
348.326	21.58
348.697	21.6
349.067	21.63
349.438	21.7
349.809	21.77
350.18	21.91
350.55	22
350.921	22.12
351.292	22.23
351.662	22.32
352.033	22.36
352.403	22.41
352.774	22.46
353.144	22.54
353.515	22.54
353.885	22.57
354.255	22.58
354.626	22.57
354.996	22.56
355.366	22.56
355.736	22.57
356.107	22.59
356.477	22.62
356.847	22.68
357.217	22.67
357.587	22.74
357.957	22.8
358.327	22.81
358.697	22.88
359.066	22.91
359.436	22.95
359.806	22.99
360.176	23.06
360.546	23.08
360.915	23.09
361.285	23.1
361.654	23.09
362.024	23.06
362.393	23.07
362.763	23.09
363.132	23.08
363.502	23.07
363.871	23.09
364.24	23.1
364.61	23.14
364.979	23.14
365.348	23.16
365.717	23.21
366.087	23.25
366.456	23.29
366.825	23.29
367.194	23.31
367.563	23.34
367.932	23.34
368.301	23.34
368.669	23.36
369.038	23.39
369.407	23.39
369.776	23.38
370.145	23.38
370.513	23.42
370.882	23.41
371.25	23.49
371.619	23.47
371.988	23.48
372.356	23.5
372.724	23.49
373.093	23.48
373.461	23.49
373.83	23.51
374.198	23.54
374.566	23.49
374.934	23.5
375.303	23.47
375.671	23.49
376.039	23.49
376.407	23.51
376.775	23.51
377.143	23.54
377.511	23.59
377.879	23.61
378.247	23.66
378.615	23.7
378.982	23.71
379.35	23.72
379.718	23.73
380.086	23.75
380.453	23.8
380.821	23.82
381.188	23.82
381.556	23.8
381.923	23.79
382.291	23.75
382.658	23.76
383.026	23.77
383.393	23.83
383.76	23.88
384.128	23.92
384.495	23.92
384.862	23.91
385.229	23.9
385.596	23.89
385.963	23.9
386.33	23.94
386.697	23.97
387.064	23.95
387.431	23.92
387.798	23.86
388.165	23.84
388.532	23.8
388.899	23.81
389.265	23.83
389.632	23.87
389.999	23.85
390.365	23.84
390.732	23.82
391.098	23.84
391.465	23.85
391.831	23.86
392.198	23.83
392.564	23.86
392.93	23.88
393.297	23.89
393.663	23.93
394.029	23.97
394.395	24.01
394.762	24.04
395.128	24.07
395.494	24.1
395.86	24.18
396.226	24.25
396.592	24.28
396.958	24.32
397.323	24.36
397.689	24.39
398.055	24.46
398.421	24.51
398.787	24.58
399.152	24.62
399.518	24.68
399.883	24.69
400.249	24.77
400.615	24.81
400.98	24.87
401.345	24.92
401.711	24.93
402.076	24.92
402.442	24.91
402.807	24.89
403.172	24.92
403.537	24.91
403.902	24.92
404.268	24.89
404.633	24.89
404.998	24.87
405.363	24.86
405.728	24.86
406.093	24.89
406.457	24.91
406.822	24.92
407.187	24.94
407.552	24.98
407.917	25.05
408.281	25.08
408.646	25.1
409.011	25.13
409.375	25.18
409.74	25.21
410.104	25.22
410.469	25.22
410.833	25.24
411.197	25.22
411.562	25.22
411.926	25.24
412.29	25.27
412.655	25.32
413.019	25.35
413.383	25.38
413.747	25.4
414.111	25.45
414.475	25.52
414.839	25.6
415.203	25.68
415.567	25.72
415.931	25.77
416.295	25.78
416.658	25.77
417.022	25.8
417.386	25.8
417.749	25.82
418.113	25.82
418.477	25.8
418.84	25.78
419.204	25.8
419.567	25.78
419.931	25.8
420.294	25.84
420.657	25.9
421.021	25.93
421.384	25.99
421.747	26.05
422.11	26.1
422.473	26.15
422.836	26.2
423.199	26.2
423.562	26.28
423.925	26.28
424.288	26.28
424.651	26.29
425.014	26.33
425.377	26.33
425.74	26.34
426.102	26.39
426.465	26.43
426.828	26.46
427.19	26.49
427.553	26.53
427.916	26.53
428.278	26.53
428.641	26.57
429.003	26.56
429.365	26.54
429.728	26.52
430.09	26.47
430.452	26.43
430.814	26.4
431.177	26.39
431.539	26.35
431.901	26.39
432.263	26.44
432.625	26.45
432.987	26.48
433.349	26.55
433.711	26.61
434.072	26.72
434.434	26.82
434.796	26.91
435.158	27.01
435.519	27.09
435.881	27.17
436.243	27.2
436.604	27.25
436.966	27.27
437.327	27.29
437.689	27.29
438.05	27.28
438.411	27.27
438.773	27.27
439.134	27.28
439.495	27.29
439.856	27.28
440.218	27.3
440.579	27.3
440.94	27.34
441.301	27.37
441.662	27.43
442.023	27.48
442.384	27.52
442.745	27.55
443.105	27.57
443.466	27.62
443.827	27.66
444.188	27.67
444.548	27.73
444.909	27.79
445.269	27.79
445.63	27.79
445.99	27.79
446.351	27.8
446.711	27.83
447.072	27.83
447.432	27.84
447.792	27.85
448.153	27.91
448.513	27.89
448.873	27.9
449.233	27.92
449.593	27.94
449.953	27.97
450.313	27.97
450.673	27.99
451.033	28.04
451.393	28.06
451.753	28.07
452.113	28.64
452.472	28.67
452.832	28.66
453.192	28.66
453.551	28.62
453.911	28.58
454.271	28.53
454.63	28.47
454.989	28.44
455.349	28.39
455.708	28.38
456.068	28.08
456.427	28.09
456.786	28.12
457.145	28.16
457.505	28.23
457.864	28.33
458.223	28.46
458.582	28.6
458.941	28.71
459.3	28.83
459.659	28.92
460.018	28.99
460.376	29.06
460.735	29.11
461.094	29.16
461.453	29.19
461.811	29.21
462.17	29.2
462.529	29.18
462.887	29.19
463.246	29.19
463.604	29.19
463.963	29.21
464.321	29.11
464.679	29.12
465.038	29.13
465.396	29.15
465.754	29.19
466.112	29.21
466.47	29.28
466.828	29.32
467.186	29.4
467.544	29.45
467.902	29.5
468.26	29.67
468.618	29.7
468.976	29.73
469.334	29.74
469.692	29.72
470.049	29.68
470.407	29.64
470.765	29.61
471.122	29.61
471.48	29.66
471.837	29.7
472.195	29.74
472.552	29.81
472.909	29.86
473.267	29.89
473.624	29.94
473.981	30.01
474.338	30.05
474.696	30.07
475.053	30.1
475.41	30.05
475.767	30.04
476.124	30.07
476.481	30.05
476.838	30.05
477.194	30.07
477.551	30.08
477.908	30.09
478.265	30.09
478.621	30.12
478.978	30.15
479.335	30.23
479.691	30.25
480.048	30.25
480.404	30.26
480.761	30.29
481.117	30.28
481.473	30.26
481.83	30.26
482.186	30.29
482.542	30.27
482.898	30.26
483.255	30.25
483.611	30.28
483.967	30.29
484.323	30.29
484.679	30.31
485.035	30.36
485.39	30.41
485.746	30.45
486.102	30.47
486.458	30.47
486.814	30.51
487.169	30.53
487.525	30.56
487.88	30.59
488.236	30.59
488.591	30.57
488.947	30.55
489.302	30.52
489.658	30.5
490.013	30.46
490.368	30.44
490.723	30.39
491.079	30.33
491.434	30.31
491.789	30.28
492.144	30.28
492.499	30.3
492.854	30.33
493.209	30.34
493.564	30.34
493.919	30.39
494.273	30.44
494.628	30.45
494.983	30.51
495.338	30.5
495.692	30.52
496.047	30.5
496.401	30.47
496.756	30.4
497.11	30.34
497.465	30.29
497.819	30.23
498.173	30.17
498.528	30.15
498.882	30.09
499.236	30.07
499.59	30.05
499.944	30.05
500.298	30.04
500.652	30.05
501.006	30.05
501.36	30.07
501.714	30.06
502.068	30.08
502.422	30.09
502.776	30.12
503.129	30.17
503.483	30.21
503.837	30.28
504.19	30.34
504.544	30.38
504.897	30.42
505.251	30.42
505.604	30.42
505.958	30.4
506.311	30.36
506.664	30.33
507.017	30.24
507.371	30.16
507.724	30.06
508.077	29.97
508.43	29.9
508.783	29.88
509.136	29.88
509.489	29.85
509.842	29.85
510.195	29.85
510.547	29.81
510.9	29.79
511.253	29.75
511.606	29.7
511.958	29.64
512.311	29.57
512.663	29.46
513.016	29.35
513.368	29.26
513.721	29.18
514.073	29.11
514.425	29.06
514.778	29
515.13	28.98
515.482	28.97
515.834	28.96
516.186	28.96
516.538	29
516.89	29.05
517.242	29.12
517.594	29.17
517.946	29.21
518.298	29.22
518.65	29.23
519.001	29.23
519.353	29.22
519.705	29.19
520.056	29.14
520.408	29.06
520.759	28.97
521.111	28.89
521.462	28.79
521.814	28.71
522.165	28.68
522.516	28.64
522.868	28.59
523.219	28.55
523.57	28.5
523.921	28.43
524.272	28.39
524.623	28.35
524.974	28.25
525.325	28.21
525.676	28.15
526.027	28.08
526.378	28.01
526.728	27.93
527.079	27.87
527.43	27.82
527.78	27.79
528.131	27.72
528.481	27.67
528.832	27.63
529.182	27.59
529.533	27.53
529.883	27.46
530.233	27.45
530.584	27.42
530.934	27.37
531.284	27.27
531.634	27.19
531.984	27.14
532.334	27.06
532.684	26.98
533.034	26.87
533.384	26.86
533.734	26.81
534.084	26.72
534.434	26.62
534.783	26.57
535.133	26.5
535.483	26.47
535.832	26.43
536.182	26.38
536.531	26.34
536.881	26.31
537.23	26.21
537.58	26.11
537.929	26.08
538.278	27.63
538.628	27.54
538.977	27.51
539.326	27.43
539.675	27.34
540.024	27.25
540.373	27.2
540.722	27.13
541.071	27.09
541.42	27.09
541.769	27
542.117	25.37
542.466	25.34
542.815	25.24
543.163	25.19
543.512	25.12
543.861	25.04
544.209	24.97
544.558	24.87
544.906	24.77
545.254	24.65
545.603	24.61
545.951	24.53
546.299	24.5
546.647	24.52
546.996	24.49
547.344	24.46
547.692	24.44
548.04	24.41
548.388	24.39
548.736	24.34
549.083	24.31
549.431	24.24
549.779	24.14
550.127	24.03
550.475	23.87
550.822	23.75
551.17	23.7
551.517	23.64
551.865	23.54
552.212	23.49
552.56	23.43
552.907	23.37
553.254	23.32
553.602	23.29
553.949	23.27
554.296	23.2
554.643	23.16
554.99	23.06
555.337	22.94
555.684	22.89
556.031	22.78
556.378	22.7
556.725	22.61
557.072	22.53
557.419	22.43
557.765	22.27
558.112	22.23
558.459	22.14
558.805	22.02
559.152	21.96
559.498	21.9
559.845	21.86
560.191	21.8
560.538	21.72
560.884	21.66
561.23	21.6
561.576	21.55
561.923	21.4
562.269	21.33
562.615	21.27
562.961	21.18
563.307	21.1
563.653	21.04
563.999	20.94
564.344	20.87
564.69	20.77
565.036	20.72
565.382	20.64
565.727	20.61
566.073	20.56
566.419	20.48
566.764	20.43
567.11	20.34
567.455	20.25
567.8	20.21
568.146	20.15
568.491	20.09
568.836	20.01
569.181	19.93
569.527	19.87
569.872	19.78
570.217	19.71
570.562	19.66
570.907	19.59
571.252	19.54
571.597	19.48
571.941	19.41
572.286	19.38
572.631	19.35
572.976	19.34
573.32	19.32
573.665	19.32
574.009	19.31
574.354	19.31
574.698	19.3
575.043	19.29
575.387	19.25
575.731	19.23
576.076	19.19
576.42	19.15
576.764	19.13
577.108	19.11
577.452	19.06
577.796	19.05
578.14	19.05
578.484	18.96
578.828	18.91
579.172	18.86
579.516	18.83
579.86	18.78
580.203	18.73
580.547	18.7
580.891	18.64
581.234	18.59
581.578	18.53
581.921	18.47
582.264	18.45
582.608	18.33
582.951	18.32
583.294	18.28
583.638	18.26
583.981	18.23
584.324	18.19
584.667	18.16
585.01	18.09
585.353	18.08
585.696	18.05
586.039	18.03
586.382	18.02
586.725	18
587.067	17.97
587.41	17.95
587.753	17.95
588.095	17.92
588.438	17.92
588.781	17.89
589.123	17.85
589.465	17.83
589.808	17.82
590.15	17.82
590.492	17.81
590.835	17.79
591.177	17.75
591.519	17.73
591.861	17.71
592.203	17.69
592.545	17.68
592.887	17.65
593.229	17.65
593.571	17.64
593.913	17.61
594.254	17.58
594.596	17.55
594.938	17.5
595.279	17.49
595.621	17.43
595.963	17.38
596.304	17.36
596.645	17.35
596.987	17.33
597.328	17.34
597.669	17.29
598.011	17.26
598.352	17.19
598.693	17.17
599.034	17.16
599.375	17.1
599.716	17.09
600.057	17.08
600.398	17.08
600.739	17.08
601.08	17.03
601.42	17.02
601.761	17.01
602.102	17.02
602.442	17.02
602.783	16.94
603.123	16.95
603.464	16.89
603.804	16.87
604.145	16.83
604.485	16.79
604.825	16.75
605.166	16.69
605.506	16.69
605.846	16.69
606.186	16.68
606.526	16.59
606.866	16.56
607.206	16.55
607.546	16.5
607.886	16.43
608.225	16.34
608.565	16.31
608.905	16.24
609.245	16.2
609.584	16.12
609.924	16.1
610.263	16.1
610.603	16.1
610.942	16.06
611.281	16.05
611.621	16.03
611.96	16
612.299	16.02
612.638	16.04
612.978	16.01
613.317	15.98
613.656	15.98
613.995	16
614.334	15.99
614.672	15.93
615.011	15.91
615.35	15.88
615.689	15.88
616.027	15.87
616.366	15.84
616.705	15.83
617.043	15.81
617.382	15.79
617.72	15.75
618.059	15.71
618.397	15.7
618.735	15.68
619.073	15.66
619.412	15.65
619.75	15.57
620.088	15.57
620.426	15.5
620.764	15.46
621.102	15.4
621.44	15.37
621.778	15.35
622.115	15.32
622.453	15.29
622.791	15.25
623.129	15.17
623.466	15.13
623.804	15.09
624.141	15.04
624.479	15.03
624.816	14.99
625.153	14.99
625.491	14.88
625.828	14.78
626.165	14.77
626.502	14.77
626.84	14.7
627.177	14.63
627.514	14.6
627.851	14.53
628.188	14.46
628.524	14.37
628.861	14.38
629.198	14.35
629.535	14.28
629.871	14.26
630.208	14.3
630.545	14.27
630.881	14.22
631.218	14.2
631.554	14.15
631.89	14.15
632.227	14.16
632.563	14.06
632.899	13.98
633.235	13.94
633.572	13.88
633.908	13.77
634.244	13.73
634.58	13.71
634.916	13.65
635.251	13.66
635.587	13.6
635.923	13.54
636.259	13.58
636.595	13.6
636.93	13.57
637.266	13.55
637.601	13.54
637.937	13.47
638.272	13.42
638.608	13.42
638.943	13.37
639.278	13.36
639.613	13.35
639.949	13.28
640.284	13.21
640.619	13.22
640.954	13.19
641.289	13.1
641.624	13.06
641.959	13.03
642.294	12.93
642.628	12.87
642.963	12.84
643.298	12.77
643.632	12.81
643.967	12.74
644.302	12.68
644.636	12.64
644.971	12.61
645.305	12.62
645.639	12.62
645.974	12.64
646.308	12.59
646.642	12.52
646.976	12.56
647.31	12.43
647.644	12.49
647.978	12.44
648.312	12.5
648.646	12.51
648.98	12.48
649.314	12.36
649.647	12.27
649.981	12.24
650.315	12.17
650.648	12.09
650.982	12.09
651.315	11.97
651.649	11.92
651.982	11.78
652.316	11.76
652.649	11.73
652.982	11.78
653.315	11.79
653.648	11.79
653.982	11.83
654.315	11.84
654.648	11.79
654.981	11.79
655.313	11.86
655.646	11.87
655.979	11.81
656.312	11.73
656.644	11.72
656.977	11.62
657.31	11.54
657.642	11.47
657.975	11.38
658.307	11.37
658.64	11.28
658.972	11.14
659.304	11.13
659.636	11.08
659.969	11.03
660.301	10.98
660.633	10.98
660.965	10.95
661.297	10.95
661.629	10.96
661.961	10.87
662.292	10.91
662.624	10.89
662.956	10.81
663.288	10.86
663.619	10.91
663.951	10.91
664.282	10.92
664.614	10.96
664.945	10.99
665.276	10.93
665.608	10.91
665.939	10.9
666.27	10.89
666.601	10.93
666.933	10.89
667.264	10.82
667.595	10.75
667.926	10.69
668.256	10.63
668.587	10.51
668.918	10.49
669.249	10.47
669.58	10.45
669.91	10.42
670.241	10.34
670.571	10.33
670.902	10.3
671.232	10.33
671.563	10.31
671.893	10.28
672.223	10.27
672.554	10.26
672.884	10.29
673.214	10.21
673.544	10.26
673.874	10.31
674.204	10.31
674.534	10.33
674.864	10.27
675.194	10.27
675.524	10.29
675.853	10.32
676.183	10.38
676.513	10.33
676.842	10.32
677.172	10.34
677.501	10.32
677.831	10.22
678.16	10.19
678.489	10.2
678.819	10.21
679.148	10.19
679.477	10.18
679.806	10.09
680.135	10.04
680.464	10.01
680.793	9.93
681.122	9.82
681.451	9.81
681.78	9.64
682.108	9.62
682.437	9.48
682.766	9.39
683.094	9.27
683.423	9.21
683.751	9.25
684.08	9.3
684.408	9.28
684.737	9.33
685.065	9.27
685.393	9.5
685.721	9.45
686.049	9.62
686.377	9.67
686.705	9.68
687.033	9.76
687.361	9.66
687.689	9.6
688.017	9.61
688.345	9.59
688.673	9.59
689.0	9.47
689.328	9.45
689.655	9.37
689.983	9.39
690.31	9.38
690.638	9.33
690.965	9.41
691.292	9.41
691.62	9.44
691.947	9.38
692.274	9.38
692.601	9.41
692.928	9.46
693.255	9.39
693.582	9.34
693.909	9.34
694.236	9.29
694.562	9.23
694.889	9.35
695.216	9.2
695.542	9.32
695.869	9.34
696.196	9.39
696.522	9.32
696.848	9.32
697.175	9.22
697.501	9.3
697.827	9.24
698.154	9.29
698.48	9.13
698.806	9.11
699.132	9
699.458	8.93
699.784	8.82
700.11	8.81
700.435	8.84
700.761	8.82
701.087	8.69
701.413	8.75
701.738	8.71
702.064	8.67
702.389	8.66
702.715	8.67
703.04	8.79
703.366	8.8
703.691	8.82
704.016	8.79
704.341	8.98
704.666	9.06
704.992	9.09
705.317	9.08
705.642	9.17
705.967	9.2
706.291	9.1
706.616	8.94
706.941	8.89
707.266	8.94
707.59	8.92
707.915	8.8
708.24	8.61
708.564	8.44
708.889	8.24
709.213	8.05
709.537	7.99
709.862	8
710.186	8.03
710.51	7.96
710.834	7.84
711.158	7.91
711.482	7.87
711.806	8.04
712.13	8.18
712.454	8.36
712.778	8.39
713.102	8.4
713.426	8.52
713.749	8.63
714.073	8.78
714.396	8.78
714.72	8.74
715.043	8.79
715.367	8.82
715.69	8.81
716.013	8.73
716.337	8.72
716.66	8.86
716.983	8.89
717.306	8.89
717.629	8.76
717.952	8.63
718.275	8.65
718.598	8.36
718.921	8.24
719.243	8.32
719.566	8.36
719.889	8.63
720.211	8.49
720.534	8.52
720.856	8.43
721.179	8.54
721.501	8.82
721.823	8.87
722.146	9.03
722.468	9.15
722.79	9
723.112	8.94
723.434	8.69
723.756	8.72
724.078	8.5
724.4	8.31
724.722	8.16
725.044	8.02
725.366	7.71
725.687	7.59
726.009	7.52
726.33	7.47
726.652	7.56
726.973	7.68
727.295	7.71
727.616	7.82
727.938	8.12
728.259	8.36
728.58	8.38
728.901	8.86
729.222	9.19
729.543	9.26
729.864	9.36
730.185	9.39
730.506	9.08
730.827	9.16
731.148	9.16
731.468	8.9
731.789	8.57
732.11	8.61
732.43	8.44
732.751	8.43
733.071	8.28
733.392	8.32
733.712	8.4
734.032	8.62
734.352	8.52
734.673	8.36
734.993	8.54
735.313	8.67
735.633	8.8
735.953	8.6
736.273	8.6
736.593	8.75
736.912	8.58
737.232	8.59
737.552	8.56
737.871	8.3
738.191	8.65
738.51	8.75
738.83	8.77
739.149	8.48
739.469	8.77
739.788	8.81
740.107	8.9
740.426	9.13
740.746	8.94
741.065	8.97
741.384	8.98
741.703	8.79
742.022	8.61
742.341	8.63
742.659	8.77
742.978	8.38
743.297	8.13
743.615	7.92
743.934	7.51
744.253	7.38
744.571	7.29
744.89	7.5
745.208	7.51
745.526	7.39
745.845	7.17
746.163	7.01
746.481	7.52
746.799	7.48
747.117	7.39
747.435	7.65
747.753	7.64
748.071	7.76
748.389	7.69
748.706	7.72
749.024	7.83
749.342	8.07
749.659	8.32
749.977	7.65
750.295	7.74
750.612	7.65
750.929	7.58
751.247	7.88
751.564	8.01
751.881	8.17
752.198	8.28
752.516	8.29
752.833	8.3
753.15	8
753.467	8.3
753.783	8.42
754.1	8.76
754.417	8.81
754.734	8.65
755.05	8.77
755.367	8.75
755.684	8.31
756.0	8.21
756.317	7.98
756.633	8.15
756.949	8.29
757.266	8.23
757.582	8.01
757.898	8.23
758.214	8.35
758.53	8.07
758.846	7.99
759.162	8.13
759.478	8.07
759.794	8.22
760.11	8.45
760.426	8.21
760.741	8.31
761.057	8.32
761.372	8.11
761.688	7.87
762.003	7.91
762.319	7.87
762.634	7.9
762.949	7.83
763.265	7.7
763.58	7.63
763.895	7.72
764.21	7.46
764.525	7.46
764.84	7.37
765.155	7.16
765.47	6.99
765.785	6.97
766.099	7.07
766.414	7.04
766.729	7.02
767.043	6.71
767.358	6.7
767.672	6.68
767.987	6.69
768.301	7.09
768.615	7.55
768.929	7.6
769.244	7.49
769.558	7.77
769.872	8.1
770.186	8.28
770.5	8.68
770.814	8.7
771.127	9.06
771.441	8.76
771.755	8.48
772.069	8.18
772.382	8.26
772.696	8.62
773.009	8
773.323	7.8
773.636	7.79
773.95	7.26
774.263	7.18
774.576	6.79
774.889	7.32
775.202	7.32
775.515	7.92
775.828	7.83
776.141	7.65
776.454	8
776.767	7.88
777.08	7.91
777.393	8.41
777.705	8.53
778.018	8.44
778.33	7.82
778.643	7.69
778.955	7.25
779.268	7.48
779.58	7.69
779.892	7.28
780.205	7.89
780.517	8.49
780.829	8.4
781.141	8.79
781.453	9.26
781.765	10.28
782.077	10.3
782.388	9.69
782.7	9.47
783.012	9.72
783.324	9.93
783.635	9.96
783.947	9.31
784.258	9.16
784.57	8.84
784.881	8.52
785.192	8.48
785.504	8.66
785.815	9.78
786.126	9.93
786.437	9.68
786.748	9.38
787.059	9.07
787.37	9.03
787.681	9
787.992	9.15
788.302	9.79
788.613	9.42
788.924	9.03
789.234	8.74
789.545	8.85
789.855	8.75
790.166	9.12
790.476	8.82
790.786	8.4
791.096	8.09
791.407	7.95
791.717	7.38
792.027	7.26
792.337	7.68
792.647	7.66
792.957	7.66
793.266	7.59
793.576	7.75
793.886	8.38
794.196	8.9
794.505	12.83
794.815	12.84
795.124	12.48
795.434	13.06
795.743	13.08
796.052	12.72
796.362	13.03
796.671	13.32
796.98	13.41
797.289	12.56
797.598	12.28
797.907	8.51
798.216	8.38
798.525	8.63
798.834	8
799.142	8.33
799.451	8.65
799.76	8.2
800.068	8.14
800.377	7.38
800.685	8.07
800.994	8.2
801.302	8.02
801.61	8.27
801.918	7.57
802.227	6.62
802.535	5.89
802.843	5.31
803.151	4.42
803.459	3.96
803.767	4.62
804.074	4.66
804.382	5.18
804.69	7.19
804.998	7.64
805.305	8.62
805.613	9.86
805.92	10.15
806.228	11.01
806.535	11.8
806.842	11.85
807.15	11.64
807.457	11.01
807.764	10.91
808.071	8.84
808.378	8.69
808.685	8.74
808.992	8.68
809.299	8.62
809.605	8.86
809.912	8.98
810.219	8.69
810.525	9.1
810.832	9.39
811.138	8.88
811.445	9.94
811.751	9.75
812.058	9.66
812.364	9.99
812.67	10.37
812.976	10
813.282	9.69
813.588	9.63
813.894	9.32
814.2	9.01
814.506	9.25
814.812	9.46
815.118	9.16
815.423	8.78
815.729	7.84
816.035	6.89
816.34	6.23
816.646	6.55
816.951	6.52
817.256	5.44
817.562	6.13
817.867	6.24
818.172	4.7
818.477	3.85
818.782	4.65
819.087	5.68
819.392	6.18
819.697	6.8
820.002	6.9
820.306	7.28
820.611	8.17
820.916	8.67
821.22	8.97
821.525	9.41
821.829	9.61
822.134	8.72
822.438	8.43
822.742	8.19
823.047	8.19
823.351	8.02
823.655	8.02
823.959	7.81
824.263	7.57
824.567	7.55
824.871	7.42
825.174	7.26
825.478	10.09
825.782	10.3
826.086	10.44
826.389	10.48
826.693	10.41
826.996	10.18
827.3	10.4
827.603	10.52
827.906	10.3
828.209	10.5
828.513	10.69
828.816	7.43
829.119	7.11
829.422	7.03
829.725	6.91
830.028	7.27
830.33	7.99
830.633	8.27
830.936	8.06
831.238	8.2
831.541	8.22
831.844	8.38
832.146	8.14
832.448	8.42
832.751	9.13
833.053	9.59
833.355	10.25
833.657	10.08
833.96	9.7
834.262	9.75
834.564	9.95
834.865	9.76
835.167	11.18
835.469	11.33
835.771	10.83
836.073	10.39
836.374	9.99
836.676	9.35
836.977	9.3
837.279	9.48
837.58	10.32
837.882	10.79
838.183	10.88
838.484	9.71
838.785	10.29
839.086	10.91
839.387	10.81
839.688	11.15
839.989	11.49
840.29	11.13
840.591	11.71
840.892	11.47
841.192	12.69
841.493	12.12
841.794	12.22
842.094	11.88
842.394	10.99
842.695	11.05
842.995	9.67
843.295	8.4
843.596	8.74
843.896	8.77
844.196	7.89
844.496	4.28
844.796	5.65
845.096	4.99
845.396	5.37
845.695	8.31
845.995	9.2
846.295	10.44
846.594	13.93
846.894	14.76
847.194	13.51
847.493	14.95
847.792	15.94
848.092	15.86
848.391	16.17
848.69	16.32
848.989	15.14
849.288	15.22
849.587	13.36
849.886	10.97
850.185	9.69
850.484	13.23
850.783	13.23
851.081	12.47
851.38	11.93
851.679	10.58
851.977	9.32
852.276	8.4
852.574	7.14
852.872	10.65
853.171	11.13
853.469	11.8
853.767	6.8
854.065	7.39
854.363	10.07
854.661	13.02
854.959	15.83
855.257	17.95
855.555	20.75
855.853	22.53
856.15	22.46
856.448	20.77
856.746	21.43
857.043	21.2
857.341	22.68
857.638	24.38
857.935	20.41
858.233	18.59
858.53	17.78
858.827	17.07
859.124	17.76
859.421	17.7
859.718	19.69
860.015	19.57
860.312	22.15
860.609	19.79
860.905	19.34
861.202	21.1
861.499	21.41
861.795	22.4
862.092	24.14
862.388	23.76
862.684	21.85
862.981	19.8
863.277	20.21
863.573	19.37
863.869	19.4
864.165	14.49
864.461	13.74
864.757	14.84
865.053	14.27
865.349	9.89
865.645	9.31
865.94	11.46
866.236	14.03
866.532	14.62
866.827	17.61
867.123	16.78
867.418	20.32
867.713	21.03
868.009	18.1
868.304	16.89
868.599	18.9
868.894	19.12
869.189	18.5
869.484	17.65
869.779	16.21
870.074	12
870.369	12.16
870.663	12.04
870.958	11.34
871.252	14.29
871.547	14.98
871.842	12.97
872.136	12.33
872.43	12.29
872.725	13.16
873.019	12.7
873.313	14.68
873.607	14.5
873.901	13.63
874.195	13.92
874.489	13.91
874.783	15.13
875.077	15.5
875.37	15.9
875.664	16.59
875.958	14.11
876.251	16.65
876.545	18.37
876.838	16.76
877.132	17.17
877.425	22.47
877.718	21.68
878.011	20.75
878.305	23.47
878.598	23.22
878.891	21.08
879.184	23.76
879.476	24.55
879.769	23.01
880.062	21.72
880.355	19.6
880.647	13.36
880.94	13.97
881.232	11.65
881.525	7.84
881.817	4.8
882.11	7.34
882.402	6.39
882.694	5.51
882.986	6.18
883.278	7.26
883.57	8.58
883.862	9.85
884.154	9.69
884.446	10.05
884.738	10.26
885.03	11.39
885.321	11.09
885.613	11.05
885.904	10.47
886.196	10.17
886.487	10.88
886.779	10.67
887.07	9.91
887.361	10.22
887.652	10.4
887.943	11.26
888.234	11.43
888.525	11.53
888.816	13.05
889.107	14.9
889.398	16.69
889.689	16.36
889.979	18.56
890.27	20.88
890.56	21.4
890.851	23.13
891.141	23.83
891.432	23.89
891.722	26.72
