Data from groin1_Reflection__1__11-48-05-104.txt Node

Date: Thu Aug 04 11:48:05 AEST 2022
User: kathy
Spectrometer: JAZA2503
Trigger mode: 0
Integration Time (sec): 2.883200E-1
Scans to average: 10
Electric dark correction enabled: true
Nonlinearity correction enabled: true
Boxcar width: 5
XAxis mode: Wavelengths
Number of Pixels in Spectrum: 2048
>>>>>Begin Spectral Data<<<<<
189.467	-176.5
189.852	-477.78
190.237	-11236.82
190.622	-653.12
191.007	-183.45
191.392	-305.87
191.777	-440.61
192.162	-69.07
192.546	-222.64
192.931	-405.72
193.316	-400.42
193.701	-608.79
194.086	366.4
194.47	252.98
194.855	502.92
195.24	8250.52
195.624	440.2
196.009	-384
196.393	108.98
196.778	-1108.12
197.163	-77.69
197.547	-17.42
197.931	-4.31
198.316	19.13
198.7	19.92
199.085	21
199.469	23.54
199.853	26
200.237	27.81
200.622	30.6
201.006	26.43
201.39	27.38
201.774	29.54
202.158	29.9
202.542	29.62
202.926	26.83
203.31	18.91
203.694	21.31
204.078	12.45
204.462	13.09
204.846	16.31
205.23	8.73
205.614	4.19
205.998	-1.27
206.381	2.94
206.765	5.04
207.149	3.92
207.532	10.76
207.916	5.93
208.3	10.3
208.683	9.74
209.067	7.54
209.45	15.72
209.834	19.3
210.217	19.81
210.601	20.66
210.984	20.04
211.367	24.09
211.751	22.76
212.134	23.8
212.517	22.78
212.901	20.8
213.284	22.05
213.667	23.22
214.05	23.09
214.433	24.93
214.816	24.35
215.199	26.07
215.582	21.77
215.965	20.41
216.348	20.15
216.731	22.49
217.114	22.31
217.497	15.4
217.88	7.45
218.262	2.45
218.645	0.82
219.028	-4.49
219.411	-5.94
219.793	-5.11
220.176	-2.47
220.559	-4.7
220.941	-7.86
221.324	-7.86
221.706	-4.12
222.089	-1.64
222.471	3.58
222.853	3.23
223.236	7.28
223.618	6.44
224	7.61
224.383	5.03
224.765	7.23
225.147	7.86
225.529	7.67
225.912	7.5
226.294	7.14
226.676	5.19
227.058	4.68
227.44	3.57
227.822	3.37
228.204	2.34
228.586	2.81
228.968	2.4
229.349	2.09
229.731	2.29
230.113	1.91
230.495	1.93
230.877	2.08
231.258	2.23
231.64	2.27
232.022	2.16
232.403	2.76
232.785	2.95
233.166	2.96
233.548	3.27
233.929	3.2
234.311	3.5
234.692	3.05
235.073	2.78
235.455	2.78
235.836	2.8
236.217	2.87
236.599	2.39
236.98	2.11
237.361	1.74
237.742	1.45
238.123	1.27
238.504	1.31
238.885	1.48
239.266	1.66
239.647	1.35
240.028	1.53
240.409	1.47
240.79	1.5
241.171	1.48
241.552	1.54
241.933	1.62
242.313	1.63
242.694	1.6
243.075	1.89
243.456	1.77
243.836	2
244.217	1.95
244.597	1.96
244.978	2.09
245.358	2.14
245.739	2.16
246.119	2.01
246.5	2.04
246.88	1.97
247.26	1.77
247.641	1.74
248.021	1.69
248.401	1.64
248.781	1.64
249.162	1.58
249.542	1.56
249.922	1.53
250.302	1.63
250.682	1.53
251.062	1.5
251.442	1.48
251.822	1.65
252.202	1.65
252.582	1.61
252.961	1.59
253.341	1.61
253.721	1.49
254.101	1.45
254.48	1.42
254.86	1.43
255.24	1.58
255.619	1.67
255.999	1.29
256.378	1.21
256.758	1.26
257.137	1.13
257.517	1.15
257.896	1.29
258.276	1.25
258.655	1.15
259.034	1.07
259.414	0.97
259.793	0.89
260.172	0.99
260.551	0.96
260.93	0.9
261.309	0.9
261.688	0.87
262.068	0.83
262.447	0.83
262.825	0.84
263.204	0.81
263.583	0.8
263.962	0.84
264.341	0.91
264.72	0.95
265.099	1.02
265.477	1.06
265.856	1
266.235	1
266.613	1.03
266.992	1.04
267.371	1.1
267.749	1.2
268.128	1.21
268.506	1.18
268.884	1.12
269.263	1.06
269.641	1.06
270.02	1.04
270.398	0.98
270.776	0.99
271.154	1.02
271.533	1.03
271.911	0.93
272.289	0.87
272.667	0.85
273.045	0.82
273.423	0.85
273.801	0.81
274.179	0.84
274.557	0.88
274.935	0.88
275.313	0.84
275.69	0.87
276.068	0.94
276.446	0.93
276.824	0.94
277.201	1.02
277.579	1
277.957	1.06
278.334	1.03
278.712	1.01
279.089	0.97
279.467	1.04
279.844	1.02
280.222	0.95
280.599	1.02
280.976	0.95
281.354	0.87
281.731	0.92
282.108	0.94
282.485	0.94
282.863	0.94
283.24	0.92
283.617	0.89
283.994	0.89
284.371	0.92
284.748	0.91
285.125	0.96
285.502	0.99
285.879	0.99
286.256	0.98
286.633	1.02
287.009	1.08
287.386	1.14
287.763	1.19
288.139	1.25
288.516	1.32
288.893	1.35
289.269	1.38
289.646	1.42
290.022	1.44
290.399	1.44
290.775	1.48
291.152	1.47
291.528	1.5
291.904	1.5
292.281	1.54
292.657	1.54
293.033	1.59
293.41	1.65
293.786	1.7
294.162	1.73
294.538	1.83
294.914	1.88
295.29	1.93
295.666	1.99
296.042	2
296.418	2.04
296.794	2.09
297.17	2.12
297.546	2.18
297.921	2.22
298.297	2.28
298.673	2.31
299.048	2.36
299.424	2.41
299.8	2.45
300.175	2.57
300.551	2.63
300.926	2.67
301.302	2.73
301.677	2.79
302.053	2.87
302.428	2.87
302.803	2.93
303.179	2.99
303.554	3.06
303.929	3.12
304.304	3.16
304.68	3.2
305.055	3.27
305.43	3.34
305.805	3.33
306.18	3.37
306.555	3.49
306.93	3.55
307.305	3.57
307.679	3.58
308.054	3.59
308.429	3.57
308.804	3.6
309.179	3.62
309.553	3.61
309.928	3.66
310.303	3.69
310.677	3.69
311.052	3.7
311.426	3.72
311.801	3.75
312.175	3.77
312.55	3.83
312.924	3.83
313.298	3.84
313.673	3.88
314.047	3.88
314.421	3.88
314.795	3.91
315.17	3.95
315.544	3.98
315.918	4.01
316.292	4.08
316.666	4.14
317.04	4.21
317.414	4.29
317.788	4.34
318.162	4.4
318.535	4.5
318.909	4.57
319.283	4.6
319.657	4.67
320.03	4.76
320.404	4.82
320.778	4.91
321.151	5.09
321.525	5.27
321.898	5.47
322.272	5.67
322.645	5.93
323.019	6.2
323.392	6.46
323.765	6.85
324.139	7.17
324.512	7.54
324.885	7.86
325.258	8.13
325.632	8.4
326.005	8.61
326.378	8.69
326.751	8.78
327.124	8.84
327.497	8.81
327.87	8.75
328.243	8.73
328.616	8.74
328.988	8.75
329.361	8.71
329.734	8.7
330.107	8.66
330.479	8.57
330.852	8.48
331.225	8.43
331.597	8.37
331.97	8.27
332.342	8.2
332.715	8.08
333.087	7.98
333.46	7.89
333.832	7.82
334.204	7.76
334.577	7.66
334.949	7.61
335.321	7.54
335.693	7.48
336.065	7.38
336.438	7.34
336.81	7.25
337.182	7.21
337.554	7.14
337.926	7.03
338.298	6.94
338.669	6.83
339.041	6.75
339.413	6.66
339.785	6.63
340.157	6.57
340.528	6.48
340.9	6.39
341.272	6.32
341.643	6.28
342.015	6.27
342.386	6.34
342.758	6.4
343.129	6.47
343.501	6.54
343.872	6.57
344.243	6.6
344.615	6.55
344.986	6.54
345.357	6.49
345.728	6.5
346.099	6.47
346.471	6.42
346.842	6.41
347.213	6.39
347.584	6.38
347.955	6.36
348.326	6.34
348.697	6.26
349.067	6.21
349.438	6.19
349.809	6.21
350.18	6.22
350.55	6.21
350.921	6.24
351.292	6.28
351.662	6.3
352.033	6.31
352.403	6.33
352.774	6.35
353.144	6.35
353.515	6.35
353.885	6.36
354.255	6.35
354.626	6.38
354.996	6.4
355.366	6.39
355.736	6.38
356.107	6.39
356.477	6.38
356.847	6.35
357.217	6.36
357.587	6.36
357.957	6.38
358.327	6.38
358.697	6.36
359.066	6.35
359.436	6.36
359.806	6.38
360.176	6.4
360.546	6.4
360.915	6.4
361.285	6.4
361.654	6.38
362.024	6.37
362.393	6.38
362.763	6.4
363.132	6.41
363.502	6.44
363.871	6.45
364.24	6.46
364.61	6.48
364.979	6.53
365.348	6.55
365.717	6.6
366.087	6.62
366.456	6.67
366.825	6.71
367.194	6.75
367.563	6.78
367.932	6.83
368.301	6.86
368.669	6.9
369.038	6.93
369.407	6.98
369.776	7.01
370.145	7.07
370.513	7.1
370.882	7.15
371.25	7.19
371.619	7.25
371.988	7.29
372.356	7.33
372.724	7.37
373.093	7.45
373.461	7.51
373.83	7.58
374.198	7.65
374.566	7.7
374.934	7.76
375.303	7.81
375.671	7.84
376.039	7.93
376.407	8.03
376.775	8.13
377.143	8.2
377.511	8.27
377.879	8.34
378.247	8.43
378.615	8.54
378.982	8.64
379.35	8.73
379.718	8.84
380.086	8.92
380.453	8.99
380.821	9.08
381.188	9.15
381.556	9.24
381.923	9.32
382.291	9.38
382.658	9.46
383.026	9.51
383.393	9.59
383.76	9.67
384.128	9.75
384.495	9.83
384.862	9.89
385.229	9.97
385.596	10.04
385.963	10.13
386.33	10.21
386.697	10.29
387.064	10.41
387.431	10.5
387.798	10.58
388.165	10.66
388.532	10.72
388.899	10.78
389.265	10.84
389.632	10.91
389.999	10.96
390.365	11.02
390.732	11.08
391.098	11.11
391.465	11.16
391.831	11.2
392.198	11.27
392.564	11.32
392.93	11.39
393.297	11.45
393.663	11.5
394.029	11.57
394.395	11.62
394.762	11.69
395.128	11.74
395.494	11.78
395.86	11.85
396.226	11.88
396.592	11.94
396.958	12
397.323	12.05
397.689	12.12
398.055	12.16
398.421	12.21
398.787	12.26
399.152	12.32
399.518	12.4
399.883	12.44
400.249	12.5
400.615	12.55
400.98	12.6
401.345	12.64
401.711	12.69
402.076	12.73
402.442	12.76
402.807	12.79
403.172	12.82
403.537	12.84
403.902	12.89
404.268	12.93
404.633	12.96
404.998	13.02
405.363	13.06
405.728	13.08
406.093	13.11
406.457	13.14
406.822	13.2
407.187	13.27
407.552	13.31
407.917	13.35
408.281	13.4
408.646	13.46
409.011	13.49
409.375	13.52
409.74	13.57
410.104	13.61
410.469	13.68
410.833	13.7
411.197	13.73
411.562	13.77
411.926	13.8
412.29	13.82
412.655	13.84
413.019	13.86
413.383	13.9
413.747	13.96
414.111	14
414.475	14.04
414.839	14.08
415.203	14.12
415.567	14.18
415.931	14.22
416.295	14.28
416.658	14.33
417.022	14.39
417.386	14.41
417.749	14.42
418.113	14.46
418.477	14.48
418.84	14.52
419.204	14.58
419.567	14.59
419.931	14.64
420.294	14.66
420.657	14.7
421.021	14.73
421.384	14.79
421.747	14.84
422.11	14.88
422.473	14.92
422.836	14.95
423.199	14.97
423.562	15
423.925	15.02
424.288	15.05
424.651	15.09
425.014	15.11
425.377	15.13
425.74	15.14
426.102	15.18
426.465	15.23
426.828	15.28
427.19	15.31
427.553	15.37
427.916	15.43
428.278	15.49
428.641	15.52
429.003	15.56
429.365	15.62
429.728	15.69
430.09	15.73
430.452	15.74
430.814	15.75
431.177	15.79
431.539	15.82
431.901	15.83
432.263	15.88
432.625	15.93
432.987	15.99
433.349	16.05
433.711	16.11
434.072	16.18
434.434	16.27
434.796	16.38
435.158	16.49
435.519	16.57
435.881	16.66
436.243	16.73
436.604	16.78
436.966	16.85
437.327	16.9
437.689	16.95
438.05	16.99
438.411	17.07
438.773	17.12
439.134	17.15
439.495	17.2
439.856	17.26
440.218	17.31
440.579	17.41
440.94	17.48
441.301	17.57
441.662	17.66
442.023	17.75
442.384	17.77
442.745	17.83
443.105	17.9
443.466	17.96
443.827	18
444.188	18.07
444.548	18.1
444.909	18.12
445.269	18.15
445.63	18.21
445.99	18.25
446.351	18.32
446.711	18.35
447.072	18.39
447.432	18.46
447.792	18.52
448.153	18.56
448.513	18.63
448.873	18.68
449.233	18.71
449.593	18.71
449.953	18.74
450.313	18.78
450.673	18.83
451.033	18.86
451.393	18.86
451.753	18.89
452.113	19.4
452.472	19.39
452.832	19.43
453.192	19.45
453.551	19.47
453.911	19.51
454.271	19.52
454.63	19.55
454.989	19.59
455.349	19.64
455.708	19.64
456.068	19.41
456.427	19.45
456.786	19.49
457.145	19.54
457.505	19.6
457.864	19.66
458.223	19.75
458.582	19.83
458.941	19.89
459.3	19.94
459.659	20.01
460.018	20.05
460.376	20.09
460.735	20.11
461.094	20.15
461.453	20.18
461.811	20.18
462.17	20.17
462.529	20.19
462.887	20.2
463.246	20.22
463.604	20.27
463.963	20.29
464.321	20.39
464.679	20.42
465.038	20.46
465.396	20.48
465.754	20.53
466.112	20.58
466.47	20.62
466.828	20.66
467.186	20.72
467.544	20.75
467.902	20.8
468.26	20.77
468.618	20.82
468.976	20.85
469.334	20.91
469.692	20.93
470.049	20.96
470.407	20.96
470.765	21
471.122	21.01
471.48	21.04
471.837	21.1
472.195	21.15
472.552	21.23
472.909	21.31
473.267	21.37
473.624	21.45
473.981	21.49
474.338	21.57
474.696	21.63
475.053	21.69
475.41	21.78
475.767	21.84
476.124	21.88
476.481	21.92
476.838	21.96
477.194	22.02
477.551	22.08
477.908	22.15
478.265	22.2
478.621	22.25
478.978	22.32
479.335	22.39
479.691	22.48
480.048	22.54
480.404	22.6
480.761	22.68
481.117	22.73
481.473	22.78
481.83	22.84
482.186	22.91
482.542	22.98
482.898	23.05
483.255	23.09
483.611	23.14
483.967	23.21
484.323	23.28
484.679	23.33
485.035	23.41
485.39	23.49
485.746	23.54
486.102	23.58
486.458	23.62
486.814	23.67
487.169	23.72
487.525	23.77
487.88	23.79
488.236	23.83
488.591	23.87
488.947	23.88
489.302	23.9
489.658	23.96
490.013	23.99
490.368	24.01
490.723	24.03
491.079	24.04
491.434	24.05
491.789	24.1
492.144	24.12
492.499	24.16
492.854	24.19
493.209	24.24
493.564	24.26
493.919	24.31
494.273	24.37
494.628	24.38
494.983	24.41
495.338	24.43
495.692	24.45
496.047	24.49
496.401	24.48
496.756	24.49
497.11	24.45
497.465	24.44
497.819	24.43
498.173	24.4
498.528	24.42
498.882	24.45
499.236	24.49
499.59	24.52
499.944	24.56
500.298	24.6
500.652	24.63
501.006	24.68
501.36	24.7
501.714	24.7
502.068	24.72
502.422	24.73
502.776	24.73
503.129	24.73
503.483	24.73
503.837	24.73
504.19	24.74
504.544	24.74
504.897	24.71
505.251	24.68
505.604	24.66
505.958	24.62
506.311	24.58
506.664	24.52
507.017	24.45
507.371	24.37
507.724	24.29
508.077	24.2
508.43	24.13
508.783	24.09
509.136	24.05
509.489	24.02
509.842	23.99
510.195	23.96
510.547	23.96
510.9	23.93
511.253	23.89
511.606	23.84
511.958	23.79
512.311	23.73
512.663	23.65
513.016	23.6
513.368	23.54
513.721	23.5
514.073	23.45
514.425	23.41
514.778	23.36
515.13	23.35
515.482	23.29
515.834	23.28
516.186	23.25
516.538	23.25
516.89	23.24
517.242	23.24
517.594	23.22
517.946	23.2
518.298	23.16
518.65	23.15
519.001	23.12
519.353	23.11
519.705	23.05
520.056	23
520.408	22.9
520.759	22.85
521.111	22.77
521.462	22.72
521.814	22.66
522.165	22.63
522.516	22.55
522.868	22.49
523.219	22.41
523.57	22.36
523.921	22.29
524.272	22.26
524.623	22.19
524.974	22.12
525.325	22.01
525.676	21.95
526.027	21.87
526.378	21.82
526.728	21.74
527.079	21.69
527.43	21.63
527.78	21.58
528.131	21.52
528.481	21.44
528.832	21.4
529.182	21.35
529.533	21.29
529.883	21.24
530.233	21.18
530.584	21.13
530.934	21.09
531.284	21.02
531.634	20.96
531.984	20.91
532.334	20.86
532.684	20.79
533.034	20.75
533.384	20.67
533.734	20.62
534.084	20.56
534.434	20.49
534.783	20.43
535.133	20.38
535.483	20.3
535.832	20.26
536.182	20.2
536.531	20.16
536.881	20.08
537.23	20.02
537.58	19.94
537.929	19.84
538.278	20.95
538.628	20.86
538.977	20.78
539.326	20.7
539.675	20.6
540.024	20.52
540.373	20.43
540.722	20.36
541.071	20.32
541.42	20.28
541.769	20.25
542.117	19.01
542.466	18.95
542.815	18.9
543.163	18.84
543.512	18.81
543.861	18.79
544.209	18.75
544.558	18.68
544.906	18.61
545.254	18.54
545.603	18.49
545.951	18.43
546.299	18.41
546.647	18.38
546.996	18.33
547.344	18.26
547.692	18.2
548.04	18.13
548.388	18.1
548.736	18.05
549.083	17.97
549.431	17.9
549.779	17.83
550.127	17.75
550.475	17.65
550.822	17.57
551.17	17.52
551.517	17.47
551.865	17.4
552.212	17.32
552.56	17.26
552.907	17.18
553.254	17.15
553.602	17.08
553.949	17
554.296	16.93
554.643	16.9
554.99	16.8
555.337	16.73
555.684	16.66
556.031	16.6
556.378	16.54
556.725	16.5
557.072	16.42
557.419	16.36
557.765	16.3
558.112	16.24
558.459	16.15
558.805	16.12
559.152	16.06
559.498	16.02
559.845	15.96
560.191	15.9
560.538	15.83
560.884	15.8
561.23	15.74
561.576	15.67
561.923	15.57
562.269	15.5
562.615	15.43
562.961	15.37
563.307	15.29
563.653	15.26
563.999	15.18
564.344	15.11
564.69	15.06
565.036	15.04
565.382	15.02
565.727	15
566.073	14.94
566.419	14.88
566.764	14.82
567.11	14.76
567.455	14.68
567.8	14.63
568.146	14.58
568.491	14.48
568.836	14.39
569.181	14.3
569.527	14.27
569.872	14.23
570.217	14.17
570.562	14.09
570.907	14.04
571.252	13.99
571.597	13.93
571.941	13.87
572.286	13.81
572.631	13.77
572.976	13.76
573.32	13.71
573.665	13.7
574.009	13.63
574.354	13.62
574.698	13.6
575.043	13.57
575.387	13.5
575.731	13.48
576.076	13.45
576.42	13.44
576.764	13.38
577.108	13.36
577.452	13.33
577.796	13.31
578.14	13.25
578.484	13.24
578.828	13.21
579.172	13.19
579.516	13.15
579.86	13.13
580.203	13.12
580.547	13.05
580.891	13.03
581.234	13
581.578	12.97
581.921	12.95
582.264	12.92
582.608	12.86
582.951	12.84
583.294	12.82
583.638	12.81
583.981	12.78
584.324	12.77
584.667	12.76
585.01	12.75
585.353	12.7
585.696	12.66
586.039	12.65
586.382	12.64
586.725	12.62
587.067	12.58
587.41	12.57
587.753	12.57
588.095	12.57
588.438	12.55
588.781	12.54
589.123	12.52
589.465	12.51
589.808	12.5
590.15	12.48
590.492	12.43
590.835	12.42
591.177	12.39
591.519	12.37
591.861	12.35
592.203	12.32
592.545	12.31
592.887	12.3
593.229	12.27
593.571	12.24
593.913	12.21
594.254	12.19
594.596	12.18
594.938	12.16
595.279	12.14
595.621	12.11
595.963	12.09
596.304	12.07
596.645	12.02
596.987	12.01
597.328	12
597.669	11.96
598.011	11.95
598.352	11.93
598.693	11.91
599.034	11.89
599.375	11.86
599.716	11.85
600.057	11.83
600.398	11.81
600.739	11.82
601.08	11.83
601.42	11.81
601.761	11.8
602.102	11.75
602.442	11.73
602.783	11.71
603.123	11.66
603.464	11.66
603.804	11.65
604.145	11.61
604.485	11.6
604.825	11.58
605.166	11.54
605.506	11.5
605.846	11.51
606.186	11.5
606.526	11.5
606.866	11.48
607.206	11.47
607.546	11.47
607.886	11.42
608.225	11.38
608.565	11.33
608.905	11.32
609.245	11.28
609.584	11.27
609.924	11.26
610.263	11.25
610.603	11.25
610.942	11.23
611.281	11.2
611.621	11.19
611.96	11.13
612.299	11.14
612.638	11.15
612.978	11.14
613.317	11.11
613.656	11.09
613.995	11.06
614.334	11.01
614.672	10.97
615.011	10.94
615.35	10.92
615.689	10.92
616.027	10.91
616.366	10.89
616.705	10.88
617.043	10.85
617.382	10.81
617.72	10.77
618.059	10.73
618.397	10.71
618.735	10.68
619.073	10.63
619.412	10.63
619.75	10.55
620.088	10.55
620.426	10.53
620.764	10.52
621.102	10.5
621.44	10.49
621.778	10.49
622.115	10.48
622.453	10.47
622.791	10.45
623.129	10.44
623.466	10.43
623.804	10.42
624.141	10.41
624.479	10.4
624.816	10.4
625.153	10.4
625.491	10.4
625.828	10.38
626.165	10.36
626.502	10.35
626.84	10.35
627.177	10.35
627.514	10.33
627.851	10.26
628.188	10.23
628.524	10.18
628.861	10.11
629.198	10.06
629.535	10.08
629.871	10.03
630.208	10.03
630.545	10.05
630.881	10.03
631.218	9.99
631.554	9.97
631.89	9.95
632.227	9.95
632.563	9.94
632.899	9.9
633.235	9.85
633.572	9.83
633.908	9.76
634.244	9.69
634.58	9.6
634.916	9.58
635.251	9.59
635.587	9.54
635.923	9.54
636.259	9.51
636.595	9.46
636.93	9.42
637.266	9.41
637.601	9.41
637.937	9.38
638.272	9.43
638.608	9.42
638.943	9.37
639.278	9.38
639.613	9.31
639.949	9.24
640.284	9.23
640.619	9.22
640.954	9.18
641.289	9.12
641.624	9.11
641.959	9.03
642.294	8.93
642.628	8.9
642.963	8.88
643.298	8.85
643.632	8.92
643.967	8.91
644.302	8.82
644.636	8.84
644.971	8.8
645.305	8.75
645.639	8.79
645.974	8.8
646.308	8.77
646.642	8.72
646.976	8.71
647.31	8.63
647.644	8.59
647.978	8.62
648.312	8.53
648.646	8.54
648.98	8.54
649.314	8.49
649.647	8.46
649.981	8.46
650.315	8.42
650.648	8.39
650.982	8.37
651.315	8.36
651.649	8.32
651.982	8.32
652.316	8.32
652.649	8.24
652.982	8.21
653.315	8.24
653.648	8.25
653.982	8.28
654.315	8.28
654.648	8.22
654.981	8.19
655.313	8.2
655.646	8.17
655.979	8.18
656.312	8.18
656.644	8.21
656.977	8.2
657.31	8.17
657.642	8.12
657.975	8.07
658.307	8.07
658.64	8.11
658.972	8.08
659.304	8.04
659.636	8.02
659.969	8.01
660.301	7.96
660.633	7.93
660.965	7.93
661.297	7.89
661.629	7.91
661.961	7.89
662.292	7.85
662.624	7.87
662.956	7.89
663.288	7.91
663.619	7.95
663.951	7.93
664.282	7.91
664.614	7.82
664.945	7.84
665.276	7.78
665.608	7.75
665.939	7.69
666.27	7.59
666.601	7.54
666.933	7.44
667.264	7.36
667.595	7.38
667.926	7.4
668.256	7.4
668.587	7.36
668.918	7.38
669.249	7.43
669.58	7.43
669.91	7.44
670.241	7.41
670.571	7.42
670.902	7.48
671.232	7.37
671.563	7.32
671.893	7.37
672.223	7.34
672.554	7.33
672.884	7.32
673.214	7.34
673.544	7.41
673.874	7.43
674.204	7.41
674.534	7.31
674.864	7.34
675.194	7.28
675.524	7.22
675.853	7.23
676.183	7.21
676.513	7.17
676.842	7.14
677.172	7.1
677.501	7.11
677.831	7.12
678.16	7.16
678.489	7.22
678.819	7.24
679.148	7.17
679.477	7.16
679.806	7.15
680.135	7.11
680.464	7.06
680.793	7
681.122	6.98
681.451	6.91
681.78	6.88
682.108	6.77
682.437	6.76
682.766	6.79
683.094	6.8
683.423	6.77
683.751	6.79
684.08	6.76
684.408	6.71
684.737	6.75
685.065	6.75
685.393	6.78
685.721	6.87
686.049	6.91
686.377	6.97
686.705	6.89
687.033	6.86
687.361	6.91
687.689	6.96
688.017	7.05
688.345	7.06
688.673	7.12
689.0	7.04
689.328	6.99
689.655	6.97
689.983	6.96
690.31	6.99
690.638	7.01
690.965	6.92
691.292	6.83
691.62	6.84
691.947	6.77
692.274	6.68
692.601	6.72
692.928	6.69
693.255	6.58
693.582	6.59
693.909	6.53
694.236	6.53
694.562	6.61
694.889	6.64
695.216	6.62
695.542	6.61
695.869	6.65
696.196	6.62
696.522	6.64
696.848	6.7
697.175	6.7
697.501	6.8
697.827	6.8
698.154	6.79
698.48	6.79
698.806	6.78
699.132	6.75
699.458	6.87
699.784	6.86
700.11	6.81
700.435	6.88
700.761	6.82
701.087	6.73
701.413	6.71
701.738	6.65
702.064	6.62
702.389	6.62
702.715	6.69
703.04	6.53
703.366	6.53
703.691	6.54
704.016	6.51
704.341	6.48
704.666	6.49
704.992	6.41
705.317	6.45
705.642	6.45
705.967	6.41
706.291	6.41
706.616	6.45
706.941	6.45
707.266	6.53
707.59	6.52
707.915	6.53
708.24	6.54
708.564	6.53
708.889	6.51
709.213	6.52
709.537	6.45
709.862	6.37
710.186	6.3
710.51	6.26
710.834	6.29
711.158	6.19
711.482	6.16
711.806	6.15
712.13	6.25
712.454	6.24
712.778	6.35
713.102	6.37
713.426	6.32
713.749	6.34
714.073	6.39
714.396	6.29
714.72	6.34
715.043	6.37
715.367	6.4
715.69	6.41
716.013	6.44
716.337	6.28
716.66	6.3
716.983	6.47
717.306	6.51
717.629	6.44
717.952	6.37
718.275	6.35
718.598	6.3
718.921	6.32
719.243	6.31
719.566	6.46
719.889	6.58
720.211	6.51
720.534	6.37
720.856	6.48
721.179	6.59
721.501	6.61
721.823	6.59
722.146	6.6
722.468	6.61
722.79	6.57
723.112	6.32
723.434	6.26
723.756	6.33
724.078	6.28
724.4	6.08
724.722	6.04
725.044	6.05
725.366	5.91
725.687	5.79
726.009	5.64
726.33	5.57
726.652	5.69
726.973	5.66
727.295	5.63
727.616	5.56
727.938	5.57
728.259	5.55
728.58	5.49
728.901	5.55
729.222	5.67
729.543	5.74
729.864	5.78
730.185	5.6
730.506	5.43
730.827	5.45
731.148	5.39
731.468	5.39
731.789	5.46
732.11	5.49
732.43	5.53
732.751	5.65
733.071	5.72
733.392	5.79
733.712	5.89
734.032	6.2
734.352	6.21
734.673	6.24
734.993	6.21
735.313	6.03
735.633	6.41
735.953	6.48
736.273	6.58
736.593	6.6
736.912	6.57
737.232	6.56
737.552	6.42
737.871	6.3
738.191	6.43
738.51	6.66
738.83	6.89
739.149	6.71
739.469	6.81
739.788	6.54
740.107	6.39
740.426	6.55
740.746	6.72
741.065	6.67
741.384	6.84
741.703	6.71
742.022	6.59
742.341	6.52
742.659	6.34
742.978	6.1
743.297	6.22
743.615	6.25
743.934	6.04
744.253	5.81
744.571	6.03
744.89	6.01
745.208	6.23
745.526	6.39
745.845	6.22
746.163	6.05
746.481	6.44
746.799	6.3
747.117	6.43
747.435	6.55
747.753	6.85
748.071	6.68
748.389	6.73
748.706	6.61
749.024	6.42
749.342	6.69
749.659	7.13
749.977	6.66
750.295	6.89
750.612	6.84
750.929	6.69
751.247	6.86
751.564	6.96
751.881	6.92
752.198	7.27
752.516	7.33
752.833	7.1
753.15	6.55
753.467	6.49
753.783	6.38
754.1	6.41
754.417	6.36
754.734	6.06
755.05	6.19
755.367	6.09
755.684	5.97
756.0	6.04
756.317	6.08
756.633	6.34
756.949	6.8
757.266	6.77
757.582	6.63
757.898	6.51
758.214	6.47
758.53	6.23
758.846	6.23
759.162	5.94
759.478	5.75
759.794	5.8
760.11	5.77
760.426	5.55
760.741	5.84
761.057	5.71
761.372	5.75
761.688	5.75
762.003	5.87
762.319	5.75
762.634	5.86
762.949	6.01
763.265	6.02
763.58	6.08
763.895	5.91
764.21	5.53
764.525	5.53
764.84	5.66
765.155	5.75
765.47	5.72
765.785	5.82
766.099	5.95
766.414	5.75
766.729	5.58
767.043	5.7
767.358	5.92
767.672	5.94
767.987	5.99
768.301	6.09
768.615	6.07
768.929	5.97
769.244	5.96
769.558	5.87
769.872	5.98
770.186	6.09
770.5	5.88
770.814	5.52
771.127	5.77
771.441	5.65
771.755	5.77
772.069	5.52
772.382	5.4
772.696	5.37
773.009	5.32
773.323	5.41
773.636	5.4
773.95	5.61
774.263	6.36
774.576	5.89
774.889	6.25
775.202	6.13
775.515	6.46
775.828	6.27
776.141	6.4
776.454	6.51
776.767	6.32
777.08	6.21
777.393	6.02
777.705	5.3
778.018	5.63
778.33	5.63
778.643	5.83
778.955	5.46
779.268	5.89
779.58	5.96
779.892	6.01
780.205	6.25
780.517	6.13
780.829	6.47
781.141	6.89
781.453	6.92
781.765	7.1
782.077	6.59
782.388	6.95
782.7	6.55
783.012	6.81
783.324	6.37
783.635	6.25
783.947	6.77
784.258	6.19
784.57	6.21
784.881	6.37
785.192	5.69
785.504	5.88
785.815	5.34
786.126	5.82
786.437	5.94
786.748	6.09
787.059	6.19
787.37	5.61
787.681	5.73
787.992	5.75
788.302	5.97
788.613	6.49
788.924	6.73
789.234	7.43
789.545	7.5
789.855	7.17
790.166	7.02
790.476	6.96
790.786	7.38
791.096	7.55
791.407	7.94
791.717	7.65
792.027	7.67
792.337	7.32
792.647	7.05
792.957	7.24
793.266	7.2
793.576	7.33
793.886	7.08
794.196	6.99
794.505	9.88
794.815	9.46
795.124	9.76
795.434	9.9
795.743	9.83
796.052	9.98
796.362	9.16
796.671	9.22
796.98	9.81
797.289	9.75
797.598	9.61
797.907	7.08
798.216	7.18
798.525	7.14
798.834	7.36
799.142	7.63
799.451	7.57
799.76	8.3
800.068	8.19
800.377	7.76
800.685	8.28
800.994	8.23
801.302	8.2
801.61	8.21
801.918	7.52
802.227	7.06
802.535	7.14
802.843	6.97
803.151	6.79
803.459	6.67
803.767	6.75
804.074	6.23
804.382	6.34
804.69	7.04
804.998	6.43
805.305	6.93
805.613	6.93
805.92	7.07
806.228	7.1
806.535	6.47
806.842	6.05
807.15	5.61
807.457	6.2
807.764	5.82
808.071	4.75
808.378	5.22
808.685	5.63
808.992	5.32
809.299	5.53
809.605	6.23
809.912	7.47
810.219	8
810.525	8.76
810.832	8.28
811.138	9.02
811.445	8.96
811.751	8.59
812.058	8.12
812.364	8.61
812.67	8
812.976	6.96
813.282	5.68
813.588	5.49
813.894	5.82
814.2	5.72
814.506	5.65
814.812	5.64
815.118	6.31
815.423	6.32
815.729	6.91
816.035	6.87
816.34	7.3
816.646	8.38
816.951	8.68
817.256	7.67
817.562	8.11
817.867	7.75
818.172	7.87
818.477	7.92
818.782	7.89
819.087	7.69
819.392	8.03
819.697	7.35
820.002	6.97
820.306	6.53
820.611	6.65
820.916	6.58
821.22	6.87
821.525	6.55
821.829	6.47
822.134	6.72
822.438	6.64
822.742	6.51
823.047	6.52
823.351	6.51
823.655	6.75
823.959	6.57
824.263	6.38
824.567	6.35
824.871	6.5
825.174	6.47
825.478	5.71
825.782	5.57
826.086	5.73
826.389	6.09
826.693	6.1
826.996	6.08
827.3	6.29
827.603	6.55
827.906	6.63
828.209	6.79
828.513	6.88
828.816	7.73
829.119	7.71
829.422	7.52
829.725	7.13
830.028	7.01
830.33	6.89
830.633	6.74
830.936	6.57
831.238	6.19
831.541	6
831.844	5.74
832.146	5.61
832.448	5.72
832.751	5.58
833.053	6.04
833.355	6.36
833.657	6.19
833.96	6.51
834.262	6.69
834.564	6.8
834.865	6.29
835.167	7.32
835.469	7.2
835.771	6.83
836.073	6.67
836.374	6.17
836.676	5.69
836.977	5.21
837.279	5.02
837.58	4.88
837.882	5.11
838.183	5.41
838.484	4.25
838.785	3.99
839.086	4.86
839.387	5.62
839.688	6.37
839.989	7.21
840.29	8.48
840.591	9.55
840.892	9.54
841.192	10.51
841.493	10.01
841.794	10.36
842.094	10.89
842.394	10.28
842.695	22.2
842.995	22.38
843.295	22.49
843.596	22.28
843.896	21.79
844.196	22.92
844.496	22.38
844.796	24.66
845.096	25.15
845.396	24.95
845.695	25.78
845.995	10.01
846.295	10.5
846.594	10.04
846.894	10.88
847.194	9.75
847.493	10.08
847.792	10.23
848.092	9.85
848.391	8.56
848.69	10.32
848.989	10.3
849.288	8.05
849.587	7.36
849.886	8.17
850.185	8.53
850.484	10.31
850.783	9.98
851.081	9.23
851.38	8.75
851.679	12.93
851.977	12.66
852.276	13.71
852.574	16.43
852.872	16.11
853.171	15.05
853.469	12.27
853.767	10.47
854.065	10.32
854.363	10.96
854.661	13.11
854.959	9.68
855.257	7.32
855.555	6.06
855.853	4.73
856.15	6.7
856.448	7.68
856.746	10.67
857.043	11.05
857.341	12.67
857.638	15.84
857.935	13.01
858.233	13.57
858.53	16.6
858.827	17.33
859.124	15.92
859.421	13.96
859.718	16.18
860.015	15.87
860.312	16.11
860.609	14.45
860.905	11.08
861.202	11.88
861.499	11.46
861.795	10.79
862.092	9.74
862.388	9.17
862.684	9.1
862.981	7.5
863.277	4.05
863.573	4.62
863.869	6.38
864.165	6.26
864.461	6.47
864.757	6.16
865.053	8.17
865.349	9.33
865.645	10.97
865.94	11.92
866.236	10.75
866.532	12.47
866.827	12.33
867.123	11.97
867.418	13.74
867.713	14.02
868.009	16.03
868.304	14.01
868.599	13.32
868.894	13.52
869.189	13.01
869.484	14.57
869.779	16.27
870.074	18.1
870.369	19.03
870.663	17.23
870.958	16.08
871.252	14.49
871.547	14.13
871.842	15.56
872.136	13.04
872.43	12.89
872.725	11.92
873.019	11.82
873.313	10.94
873.607	6.5
873.901	5.46
874.195	5.13
874.489	3.99
874.783	1.66
875.077	0.27
875.37	4.6
875.664	4.33
875.958	5.83
876.251	4.28
876.545	4.91
876.838	7.56
877.132	10.1
877.425	11.27
877.718	11.7
878.011	13.76
878.305	14.16
878.598	8.66
878.891	8.28
879.184	8.73
879.476	10.46
879.769	7.73
880.062	6.3
880.355	2.92
880.647	2.83
880.94	0.46
881.232	0.25
881.525	0.25
881.817	2.09
882.11	3.98
882.402	2.29
882.694	1.1
882.986	2.28
883.278	3.84
883.57	5.22
883.862	5.67
884.154	7.64
884.446	7.88
884.738	8.78
885.03	9.37
885.321	9.6
885.613	10.02
885.904	10.81
886.196	10.95
886.487	10.98
886.779	10.61
887.07	10.69
887.361	10.42
887.652	10.43
887.943	9.62
888.234	9.67
888.525	8.66
888.816	8.61
889.107	7.62
889.398	8.13
889.689	8.22
889.979	7.84
890.27	8.18
890.56	7.42
890.851	7.7
891.141	8.64
891.432	6.95
891.722	9.04
