Data from groin3_Reflection__2__15-23-15-790.txt Node

Date: Thu Aug 04 15:23:15 AEST 2022
User: kathy
Spectrometer: JAZA2503
Trigger mode: 0
Integration Time (sec): 2.439700E-1
Scans to average: 10
Electric dark correction enabled: true
Nonlinearity correction enabled: true
Boxcar width: 5
XAxis mode: Wavelengths
Number of Pixels in Spectrum: 2048
>>>>>Begin Spectral Data<<<<<
189.467	514.35
189.852	213.69
190.237	165.29
190.622	214.26
191.007	132.11
191.392	77.58
191.777	55.53
192.162	62.18
192.546	13.1
192.931	-727.76
193.316	546.64
193.701	870.24
194.086	229.21
194.47	121.55
194.855	-2201.24
195.24	435.38
195.624	-61.29
196.009	-30.44
196.393	-2.8
196.778	-125.7
197.163	-3.35
197.547	24.13
197.931	24.29
198.316	38.19
198.7	43.04
199.085	52.66
199.469	60.48
199.853	59.42
200.237	60.51
200.622	53.83
201.006	52.81
201.39	53.97
201.774	48.96
202.158	48.94
202.542	43.08
202.926	39.92
203.31	40.27
203.694	38.73
204.078	36.33
204.462	39.74
204.846	39.63
205.23	40.73
205.614	38.96
205.998	42.51
206.381	46.73
206.765	52.94
207.149	48.62
207.532	44.22
207.916	42.09
208.3	41
208.683	36.77
209.067	44.24
209.45	36.47
209.834	38.33
210.217	34.44
210.601	26.73
210.984	25.58
211.367	36.17
211.751	35.26
212.134	32.13
212.517	33.61
212.901	30.1
213.284	24.02
213.667	27.39
214.05	26.96
214.433	25.66
214.816	26.86
215.199	29.1
215.582	22.75
215.965	16.71
216.348	19.87
216.731	21.38
217.114	16.6
217.497	15.69
217.88	12.53
218.262	6.37
218.645	8.7
219.028	10.07
219.411	7.73
219.793	9.47
220.176	14.71
220.559	18.82
220.941	16.39
221.324	24.4
221.706	25.21
222.089	27.16
222.471	28.27
222.853	26.66
223.236	25.57
223.618	24.4
224	22.56
224.383	19.73
224.765	15.81
225.147	14.12
225.529	11.35
225.912	9.88
226.294	7.31
226.676	6.13
227.058	4.89
227.44	3.69
227.822	2.72
228.204	3.34
228.586	3.8
228.968	4.01
229.349	4.22
229.731	4.36
230.113	4.03
230.495	4.4
230.877	4.41
231.258	4.7
231.64	4.95
232.022	5.06
232.403	4.72
232.785	4.93
233.166	4.16
233.548	3.59
233.929	3.11
234.311	3.75
234.692	3.61
235.073	3.88
235.455	3.81
235.836	4.17
236.217	4.32
236.599	4.4
236.98	4.15
237.361	4.69
237.742	4.72
238.123	4.76
238.504	4.38
238.885	4.39
239.266	4.16
239.647	4.08
240.028	3.93
240.409	3.7
240.79	3.87
241.171	3.84
241.552	3.61
241.933	3.78
242.313	4.15
242.694	4.27
243.075	4.15
243.456	4.03
243.836	3.92
244.217	4.13
244.597	4.23
244.978	4.02
245.358	4.14
245.739	4.05
246.119	3.98
246.5	3.75
246.88	3.56
247.26	3.51
247.641	3.44
248.021	3.47
248.401	3.19
248.781	3.14
249.162	3.31
249.542	3.15
249.922	3.2
250.302	3.25
250.682	3.16
251.062	3.17
251.442	3.12
251.822	3.2
252.202	3.18
252.582	3.37
252.961	3.41
253.341	3.44
253.721	3.58
254.101	3.74
254.48	3.67
254.86	3.8
255.24	3.88
255.619	3.98
255.999	4.08
256.378	4.06
256.758	4.02
257.137	3.9
257.517	3.49
257.896	3.2
258.276	2.93
258.655	2.74
259.034	2.45
259.414	2.28
259.793	2.25
260.172	2.15
260.551	2.03
260.93	1.86
261.309	1.82
261.688	1.87
262.068	1.98
262.447	2.08
262.825	2.09
263.204	2.15
263.583	2.22
263.962	2.18
264.341	2.24
264.72	2.29
265.099	2.42
265.477	2.44
265.856	2.36
266.235	2.36
266.613	2.29
266.992	2.33
267.371	2.3
267.749	2.38
268.128	2.23
268.506	2.21
268.884	2.29
269.263	2.25
269.641	2.17
270.02	2.18
270.398	2.01
270.776	1.99
271.154	1.94
271.533	2.01
271.911	1.94
272.289	2.06
272.667	1.99
273.045	1.98
273.423	2
273.801	2.11
274.179	2.11
274.557	2.16
274.935	2.12
275.313	2.14
275.69	2.18
276.068	2.2
276.446	2.19
276.824	2.14
277.201	2.07
277.579	2.13
277.957	2.06
278.334	2.01
278.712	1.96
279.089	1.88
279.467	1.82
279.844	1.78
280.222	1.7
280.599	1.66
280.976	1.81
281.354	1.79
281.731	1.73
282.108	1.75
282.485	1.75
282.863	1.79
283.24	1.88
283.617	1.9
283.994	1.91
284.371	1.91
284.748	1.95
285.125	1.86
285.502	1.88
285.879	1.91
286.256	1.91
286.633	2
287.009	2.05
287.386	2.07
287.763	2.1
288.139	2.1
288.516	2.18
288.893	2.21
289.269	2.3
289.646	2.36
290.022	2.37
290.399	2.41
290.775	2.42
291.152	2.44
291.528	2.49
291.904	2.5
292.281	2.53
292.657	2.57
293.033	2.65
293.41	2.74
293.786	2.81
294.162	2.9
294.538	2.98
294.914	3.06
295.29	3.16
295.666	3.24
296.042	3.36
296.418	3.53
296.794	3.61
297.17	3.72
297.546	3.79
297.921	3.92
298.297	4.03
298.673	4.14
299.048	4.24
299.424	4.36
299.8	4.5
300.175	4.62
300.551	4.72
300.926	4.88
301.302	4.99
301.677	5.1
302.053	5.21
302.428	5.33
302.803	5.47
303.179	5.65
303.554	5.75
303.929	5.83
304.304	5.94
304.68	6.03
305.055	6.14
305.43	6.23
305.805	6.37
306.18	6.43
306.555	6.54
306.93	6.61
307.305	6.66
307.679	6.71
308.054	6.75
308.429	6.8
308.804	6.81
309.179	6.84
309.553	6.87
309.928	6.88
310.303	6.93
310.677	6.99
311.052	7.02
311.426	7.07
311.801	7.12
312.175	7.2
312.55	7.3
312.924	7.36
313.298	7.42
313.673	7.51
314.047	7.58
314.421	7.67
314.795	7.74
315.17	7.8
315.544	7.87
315.918	7.94
316.292	8.04
316.666	8.17
317.04	8.32
317.414	8.48
317.788	8.62
318.162	8.83
318.535	9
318.909	9.15
319.283	9.39
319.657	9.58
320.03	9.87
320.404	10.08
320.778	10.57
321.151	11.16
321.525	11.82
321.898	12.62
322.272	13.46
322.645	14.46
323.019	15.55
323.392	16.81
323.765	18.3
324.139	19.94
324.512	21.7
324.885	23.45
325.258	25.24
325.632	26.81
326.005	28.27
326.378	29.56
326.751	30.57
327.124	31.5
327.497	32.25
327.87	32.88
328.243	33.43
328.616	33.97
328.988	34.36
329.361	34.57
329.734	34.75
330.107	34.84
330.479	34.84
330.852	34.71
331.225	34.56
331.597	34.39
331.97	34.09
332.342	33.87
332.715	33.58
333.087	33.37
333.46	33.22
333.832	33.12
334.204	33.06
334.577	33.04
334.949	33.03
335.321	32.9
335.693	32.71
336.065	32.44
336.438	32.18
336.81	31.94
337.182	31.73
337.554	31.5
337.926	31.38
338.298	31.2
338.669	31.09
339.041	30.97
339.413	30.94
339.785	30.89
340.157	30.92
340.528	30.91
340.9	30.89
341.272	30.87
341.643	30.89
342.015	31.02
342.386	31.18
342.758	31.48
343.129	31.79
343.501	31.97
343.872	32.08
344.243	32.15
344.615	32.15
344.986	32.06
345.357	32.13
345.728	32.19
346.099	32.32
346.471	32.33
346.842	32.38
347.213	32.47
347.584	32.62
347.955	32.71
348.326	32.79
348.697	32.8
349.067	32.9
349.438	33.02
349.809	33.22
350.18	33.52
350.55	33.62
350.921	33.82
351.292	34.09
351.662	34.27
352.033	34.45
352.403	34.6
352.774	34.73
353.144	34.84
353.515	34.93
353.885	35.02
354.255	35.1
354.626	35.2
354.996	35.23
355.366	35.2
355.736	35.27
356.107	35.29
356.477	35.38
356.847	35.45
357.217	35.52
357.587	35.64
357.957	35.73
358.327	35.8
358.697	35.92
359.066	36.03
359.436	36.15
359.806	36.24
360.176	36.39
360.546	36.46
360.915	36.58
361.285	36.66
361.654	36.7
362.024	36.73
362.393	36.78
362.763	36.85
363.132	36.86
363.502	36.93
363.871	36.98
364.24	37.02
364.61	37.06
364.979	37.14
365.348	37.22
365.717	37.31
366.087	37.45
366.456	37.52
366.825	37.61
367.194	37.74
367.563	37.83
367.932	37.91
368.301	37.99
368.669	38.14
369.038	38.19
369.407	38.26
369.776	38.31
370.145	38.35
370.513	38.47
370.882	38.52
371.25	38.56
371.619	38.58
371.988	38.62
372.356	38.66
372.724	38.65
373.093	38.7
373.461	38.69
373.83	38.76
374.198	38.8
374.566	38.78
374.934	38.81
375.303	38.85
375.671	38.9
376.039	38.94
376.407	39
376.775	39.1
377.143	39.18
377.511	39.28
377.879	39.36
378.247	39.43
378.615	39.54
378.982	39.61
379.35	39.7
379.718	39.77
380.086	39.87
380.453	39.94
380.821	39.96
381.188	39.98
381.556	40.02
381.923	40.06
382.291	40.07
382.658	40.13
383.026	40.21
383.393	40.23
383.76	40.31
384.128	40.38
384.495	40.46
384.862	40.55
385.229	40.59
385.596	40.64
385.963	40.68
386.33	40.76
386.697	40.76
387.064	40.77
387.431	40.83
387.798	40.83
388.165	40.85
388.532	40.85
388.899	40.88
389.265	40.93
389.632	40.98
389.999	40.99
390.365	41.01
390.732	41.08
391.098	41.14
391.465	41.17
391.831	41.23
392.198	41.25
392.564	41.32
392.93	41.38
393.297	41.47
393.663	41.55
394.029	41.67
394.395	41.81
394.762	41.92
395.128	42.01
395.494	42.12
395.86	42.27
396.226	42.41
396.592	42.52
396.958	42.61
397.323	42.72
397.689	42.85
398.055	42.98
398.421	43.07
398.787	43.21
399.152	43.32
399.518	43.48
399.883	43.6
400.249	43.72
400.615	43.83
400.98	43.98
401.345	44.09
401.711	44.15
402.076	44.19
402.442	44.27
402.807	44.33
403.172	44.43
403.537	44.42
403.902	44.46
404.268	44.54
404.633	44.6
404.998	44.63
405.363	44.71
405.728	44.8
406.093	44.91
406.457	45.02
406.822	45.11
407.187	45.18
407.552	45.36
407.917	45.48
408.281	45.58
408.646	45.7
409.011	45.82
409.375	45.97
409.74	46.05
410.104	46.14
410.469	46.23
410.833	46.34
411.197	46.41
411.562	46.48
411.926	46.54
412.29	46.67
412.655	46.75
413.019	46.86
413.383	46.96
413.747	47.11
414.111	47.25
414.475	47.43
414.839	47.57
415.203	47.78
415.567	47.92
415.931	48.09
416.295	48.21
416.658	48.32
417.022	48.42
417.386	48.52
417.749	48.62
418.113	48.73
418.477	48.76
418.84	48.85
419.204	48.92
419.567	49.05
419.931	49.16
420.294	49.29
420.657	49.46
421.021	49.65
421.384	49.79
421.747	50
422.11	50.15
422.473	50.33
422.836	50.44
423.199	50.58
423.562	50.68
423.925	50.81
424.288	50.9
424.651	50.98
425.014	51.08
425.377	51.19
425.74	51.24
426.102	51.37
426.465	51.54
426.828	51.73
427.19	51.88
427.553	52.06
427.916	52.18
428.278	52.31
428.641	52.44
429.003	52.55
429.365	52.6
429.728	52.7
430.09	52.74
430.452	52.75
430.814	52.81
431.177	52.85
431.539	52.88
431.901	52.97
432.263	53.09
432.625	53.25
432.987	53.4
433.349	53.61
433.711	53.8
434.072	54.05
434.434	54.31
434.796	54.55
435.158	54.78
435.519	55.05
435.881	55.31
436.243	55.5
436.604	55.65
436.966	55.75
437.327	55.9
437.689	56.03
438.05	56.05
438.411	56.14
438.773	56.24
439.134	56.36
439.495	56.47
439.856	56.54
440.218	56.68
440.579	56.83
440.94	57.03
441.301	57.23
441.662	57.41
442.023	57.69
442.384	57.93
442.745	58.1
443.105	58.29
443.466	58.46
443.827	58.62
444.188	58.77
444.548	58.97
444.909	59.15
445.269	59.25
445.63	59.32
445.99	59.44
446.351	59.48
446.711	59.57
447.072	59.72
447.432	59.82
447.792	59.97
448.153	60.12
448.513	60.23
448.873	60.34
449.233	60.45
449.593	60.61
449.953	60.7
450.313	60.9
450.673	61.09
451.033	61.22
451.393	61.35
451.753	61.51
452.113	62.16
452.472	62.28
452.832	62.39
453.192	62.51
453.551	62.63
453.911	62.73
454.271	62.77
454.63	62.82
454.989	62.92
455.349	62.99
455.708	63.05
456.068	62.85
456.427	62.95
456.786	63.11
457.145	63.32
457.505	63.58
457.864	63.89
458.223	64.25
458.582	64.63
458.941	65
459.3	65.33
459.659	65.65
460.018	65.91
460.376	66.2
460.735	66.43
461.094	66.61
461.453	66.77
461.811	66.92
462.17	67.06
462.529	67.15
462.887	67.26
463.246	67.36
463.604	67.45
463.963	67.59
464.321	67.74
464.679	67.87
465.038	67.98
465.396	68.12
465.754	68.28
466.112	68.46
466.47	68.66
466.828	68.89
467.186	69.14
467.544	69.33
467.902	69.52
468.26	69.59
468.618	69.72
468.976	69.88
469.334	69.94
469.692	69.95
470.049	69.93
470.407	69.91
470.765	69.87
471.122	69.91
471.48	70.06
471.837	70.23
472.195	70.41
472.552	70.61
472.909	70.77
473.267	70.95
473.624	71.15
473.981	71.32
474.338	71.5
474.696	71.64
475.053	71.78
475.41	71.85
475.767	71.91
476.124	72.01
476.481	72.08
476.838	72.16
477.194	72.24
477.551	72.32
477.908	72.41
478.265	72.48
478.621	72.63
478.978	72.74
479.335	72.87
479.691	73.03
480.048	73.12
480.404	73.18
480.761	73.29
481.117	73.41
481.473	73.46
481.83	73.58
482.186	73.68
482.542	73.71
482.898	73.76
483.255	73.8
483.611	73.85
483.967	73.96
484.323	74.09
484.679	74.16
485.035	74.24
485.39	74.35
485.746	74.43
486.102	74.55
486.458	74.67
486.814	74.77
487.169	74.97
487.525	75.02
487.88	75.11
488.236	75.15
488.591	75.21
488.947	75.22
489.302	75.25
489.658	75.28
490.013	75.26
490.368	75.25
490.723	75.23
491.079	75.13
491.434	75.18
491.789	75.19
492.144	75.22
492.499	75.31
492.854	75.4
493.209	75.5
493.564	75.61
493.919	75.73
494.273	75.83
494.628	75.93
494.983	76.09
495.338	76.18
495.692	76.22
496.047	76.26
496.401	76.22
496.756	76.21
497.11	76.17
497.465	76.1
497.819	76.06
498.173	76.01
498.528	76
498.882	75.94
499.236	75.93
499.59	75.95
499.944	75.97
500.298	75.99
500.652	75.98
501.006	76.02
501.36	76.07
501.714	76.12
502.068	76.21
502.422	76.32
502.776	76.46
503.129	76.63
503.483	76.83
503.837	77.09
504.19	77.31
504.544	77.53
504.897	77.66
505.251	77.73
505.604	77.8
505.958	77.81
506.311	77.77
506.664	77.7
507.017	77.52
507.371	77.38
507.724	77.18
508.077	77.02
508.43	76.95
508.783	76.93
509.136	76.97
509.489	76.92
509.842	76.92
510.195	76.94
510.547	76.92
510.9	76.93
511.253	76.84
511.606	76.79
511.958	76.67
512.311	76.55
512.663	76.35
513.016	76.16
513.368	76.03
513.721	75.91
514.073	75.78
514.425	75.69
514.778	75.62
515.13	75.6
515.482	75.56
515.834	75.59
516.186	75.6
516.538	75.69
516.89	75.82
517.242	75.99
517.594	76.1
517.946	76.23
518.298	76.28
518.65	76.36
519.001	76.35
519.353	76.39
519.705	76.33
520.056	76.23
520.408	76.1
520.759	75.96
521.111	75.81
521.462	75.68
521.814	75.58
522.165	75.55
522.516	75.46
522.868	75.48
523.219	75.39
523.57	75.39
523.921	75.31
524.272	75.27
524.623	75.19
524.974	75.03
525.325	74.94
525.676	74.79
526.027	74.71
526.378	74.54
526.728	74.35
527.079	74.21
527.43	74.06
527.78	73.99
528.131	73.87
528.481	73.77
528.832	73.71
529.182	73.64
529.533	73.53
529.883	73.39
530.233	73.41
530.584	73.31
530.934	73.25
531.284	73.11
531.634	72.98
531.984	72.91
532.334	72.79
532.684	72.67
533.034	72.51
533.384	72.48
533.734	72.35
534.084	72.18
534.434	72.06
534.783	71.87
535.133	71.84
535.483	71.7
535.832	71.58
536.182	71.45
536.531	71.36
536.881	71.25
537.23	71.08
537.58	70.93
537.929	70.8
538.278	71.64
538.628	71.5
538.977	71.33
539.326	71.19
539.675	71.02
540.024	70.91
540.373	70.77
540.722	70.67
541.071	70.49
541.42	70.46
541.769	70.36
542.117	69.3
542.466	69.26
542.815	69.13
543.163	69.02
543.512	68.86
543.861	68.69
544.209	68.54
544.558	68.33
544.906	68.21
545.254	67.93
545.603	67.75
545.951	67.61
546.299	67.46
546.647	67.33
546.996	67.24
547.344	67.15
547.692	67.04
548.04	66.93
548.388	66.87
548.736	66.72
549.083	66.68
549.431	66.57
549.779	66.46
550.127	66.31
550.475	66.14
550.822	65.95
551.17	65.8
551.517	65.7
551.865	65.54
552.212	65.35
552.56	65.22
552.907	65.03
553.254	64.84
553.602	64.59
553.949	64.4
554.296	64.21
554.643	64.02
554.99	63.84
555.337	63.58
555.684	63.37
556.031	63.18
556.378	62.98
556.725	62.77
557.072	62.65
557.419	62.51
557.765	62.32
558.112	62.19
558.459	62.04
558.805	61.87
559.152	61.68
559.498	61.46
559.845	61.23
560.191	61.05
560.538	60.89
560.884	60.64
561.23	60.43
561.576	60.23
561.923	59.97
562.269	59.72
562.615	59.52
562.961	59.29
563.307	59.12
563.653	58.99
563.999	58.83
564.344	58.69
564.69	58.51
565.036	58.36
565.382	58.19
565.727	57.97
566.073	57.87
566.419	57.67
566.764	57.55
567.11	57.35
567.455	57.08
567.8	56.88
568.146	56.64
568.491	56.44
568.836	56.17
569.181	55.91
569.527	55.71
569.872	55.47
570.217	55.23
570.562	55.01
570.907	54.87
571.252	54.78
571.597	54.57
571.941	54.42
572.286	54.26
572.631	54.18
572.976	54.17
573.32	54.15
573.665	54.12
574.009	54.1
574.354	54.08
574.698	54
575.043	53.96
575.387	53.87
575.731	53.84
576.076	53.72
576.42	53.69
576.764	53.58
577.108	53.5
577.452	53.35
577.796	53.26
578.14	53.12
578.484	53
578.828	52.88
579.172	52.82
579.516	52.63
579.86	52.56
580.203	52.5
580.547	52.28
580.891	52.17
581.234	52
581.578	51.81
581.921	51.74
582.264	51.54
582.608	51.5
582.951	51.34
583.294	51.26
583.638	51.19
583.981	51.09
584.324	50.94
584.667	50.88
585.01	50.77
585.353	50.68
585.696	50.61
586.039	50.56
586.382	50.58
586.725	50.39
587.067	50.38
587.41	50.28
587.753	50.15
588.095	50.11
588.438	50
588.781	49.92
589.123	49.92
589.465	49.75
589.808	49.62
590.15	49.62
590.492	49.57
590.835	49.47
591.177	49.41
591.519	49.28
591.861	49.21
592.203	49.06
592.545	48.99
592.887	48.91
593.229	48.84
593.571	48.72
593.913	48.67
594.254	48.53
594.596	48.22
594.938	48.29
595.279	48.21
595.621	48.15
595.963	48.03
596.304	48.01
596.645	47.93
596.987	47.78
597.328	47.61
597.669	47.57
598.011	47.47
598.352	47.44
598.693	47.36
599.034	47.3
599.375	47.27
599.716	47.21
600.057	47.05
600.398	47.04
600.739	47
601.08	46.92
601.42	46.81
601.761	46.69
602.102	46.65
602.442	46.61
602.783	46.56
603.123	46.43
603.464	46.38
603.804	46.27
604.145	46.21
604.485	46.14
604.825	46.05
605.166	45.96
605.506	45.89
605.846	45.79
606.186	45.62
606.526	45.53
606.866	45.36
607.206	45.33
607.546	45.2
607.886	45.1
608.225	44.98
608.565	44.84
608.905	44.71
609.245	44.67
609.584	44.58
609.924	44.44
610.263	44.35
610.603	44.24
610.942	44.21
611.281	44.01
611.621	43.94
611.96	43.86
612.299	43.71
612.638	43.68
612.978	43.52
613.317	43.45
613.656	43.38
613.995	43.34
614.334	43.27
614.672	43.22
615.011	43.14
615.35	43.05
615.689	42.96
616.027	42.95
616.366	42.91
616.705	42.8
617.043	42.7
617.382	42.57
617.72	42.52
618.059	42.35
618.397	42.24
618.735	42.24
619.073	42.17
619.412	42.04
619.75	41.99
620.088	41.89
620.426	41.85
620.764	41.7
621.102	41.61
621.44	41.5
621.778	41.47
622.115	41.27
622.453	41.25
622.791	41.2
623.129	41.02
623.466	40.91
623.804	40.89
624.141	40.72
624.479	40.69
624.816	40.59
625.153	40.54
625.491	40.42
625.828	40.3
626.165	40.2
626.502	40.11
626.84	40.07
627.177	39.91
627.514	39.84
627.851	39.67
628.188	39.54
628.524	39.3
628.861	39.24
629.198	39.14
629.535	39.02
629.871	38.96
630.208	38.91
630.545	38.8
630.881	38.67
631.218	38.45
631.554	38.39
631.89	38.27
632.227	38.22
632.563	38.11
632.899	37.86
633.235	37.72
633.572	37.54
633.908	37.31
634.244	37.21
634.58	37.08
634.916	37.03
635.251	36.91
635.587	36.74
635.923	36.56
636.259	36.4
636.595	36.43
636.93	36.32
637.266	36.26
637.601	36.22
637.937	35.96
638.272	35.8
638.608	35.67
638.943	35.54
639.278	35.47
639.613	35.37
639.949	35.33
640.284	35.13
640.619	34.99
640.954	34.86
641.289	34.77
641.624	34.79
641.959	34.75
642.294	34.58
642.628	34.43
642.963	34.31
643.298	34.2
643.632	34.15
643.967	34.04
644.302	33.9
644.636	33.78
644.971	33.53
645.305	33.4
645.639	33.22
645.974	33.14
646.308	32.96
646.642	32.87
646.976	32.77
647.31	32.5
647.644	32.43
647.978	32.33
648.312	32.2
648.646	32.22
648.98	32.11
649.314	32.02
649.647	31.87
649.981	31.8
650.315	31.65
650.648	31.5
650.982	31.42
651.315	31.18
651.649	31.08
651.982	30.93
652.316	30.79
652.649	30.7
652.982	30.62
653.315	30.5
653.648	30.5
653.982	30.44
654.315	30.37
654.648	30.26
654.981	30.3
655.313	30.28
655.646	30.19
655.979	30.06
656.312	29.99
656.644	29.87
656.977	29.78
657.31	29.61
657.642	29.48
657.975	29.37
658.307	29.24
658.64	29.06
658.972	28.9
659.304	28.88
659.636	28.72
659.969	28.51
660.301	28.41
660.633	28.34
660.965	28.2
661.297	28.17
661.629	28.12
661.961	28.02
662.292	28.01
662.624	27.92
662.956	27.79
663.288	27.81
663.619	27.87
663.951	27.8
664.282	27.75
664.614	27.76
664.945	27.56
665.276	27.45
665.608	27.46
665.939	27.29
666.27	27.22
666.601	27.2
666.933	27.04
667.264	26.9
667.595	26.88
667.926	26.79
668.256	26.67
668.587	26.71
668.918	26.6
669.249	26.5
669.58	26.53
669.91	26.37
670.241	26.18
670.571	26.21
670.902	26.03
671.232	25.91
671.563	25.84
671.893	25.8
672.223	25.71
672.554	25.72
672.884	25.69
673.214	25.56
673.544	25.61
673.874	25.59
674.204	25.53
674.534	25.62
674.864	25.57
675.194	25.53
675.524	25.44
675.853	25.41
676.183	25.31
676.513	25.25
676.842	25.22
677.172	25.13
677.501	25.12
677.831	24.99
678.16	24.91
678.489	24.79
678.819	24.76
679.148	24.73
679.477	24.68
679.806	24.57
680.135	24.45
680.464	24.38
680.793	24.3
681.122	24.17
681.451	24.13
681.78	23.95
682.108	23.93
682.437	23.81
682.766	23.75
683.094	23.55
683.423	23.47
683.751	23.45
684.08	23.36
684.408	23.23
684.737	23.2
685.065	23
685.393	23.11
685.721	23
686.049	22.98
686.377	22.85
686.705	22.85
687.033	22.89
687.361	22.76
687.689	22.7
688.017	22.77
688.345	22.76
688.673	22.78
689.0	22.67
689.328	22.66
689.655	22.58
689.983	22.54
690.31	22.48
690.638	22.45
690.965	22.4
691.292	22.36
691.62	22.23
691.947	22.16
692.274	22.16
692.601	22.1
692.928	22.1
693.255	22.06
693.582	22.01
693.909	21.92
694.236	21.83
694.562	21.81
694.889	21.8
695.216	21.8
695.542	21.88
695.869	21.72
696.196	21.68
696.522	21.59
696.848	21.49
697.175	21.4
697.501	21.46
697.827	21.33
698.154	21.35
698.48	21.27
698.806	21.23
699.132	21.07
699.458	21.15
699.784	21.11
700.11	21.07
700.435	21.06
700.761	21.09
701.087	21.05
701.413	21.15
701.738	21.08
702.064	21.06
702.389	20.95
702.715	21
703.04	20.96
703.366	20.99
703.691	21.01
704.016	20.99
704.341	21.15
704.666	21.09
704.992	20.94
705.317	21
705.642	21.07
705.967	21.04
706.291	20.97
706.616	20.82
706.941	20.73
707.266	20.72
707.59	20.63
707.915	20.39
708.24	20.27
708.564	20.18
708.889	20.04
709.213	19.88
709.537	19.92
709.862	19.78
710.186	19.89
710.51	19.85
710.834	19.7
711.158	19.78
711.482	19.71
711.806	19.73
712.13	19.73
712.454	19.71
712.778	19.81
713.102	19.66
713.426	19.81
713.749	19.76
714.073	19.7
714.396	19.67
714.72	19.55
715.043	19.48
715.367	19.46
715.69	19.49
716.013	19.41
716.337	19.33
716.66	19.52
716.983	19.56
717.306	19.55
717.629	19.51
717.952	19.54
718.275	19.46
718.598	19.4
718.921	19.39
719.243	19.48
719.566	19.58
719.889	19.57
720.211	19.38
720.534	19.15
720.856	18.95
721.179	18.79
721.501	18.85
721.823	18.97
722.146	19.06
722.468	18.9
722.79	18.9
723.112	18.83
723.434	18.65
723.756	18.76
724.078	18.84
724.4	18.85
724.722	19.03
725.044	18.89
725.366	18.74
725.687	18.68
726.009	18.74
726.33	18.6
726.652	18.57
726.973	18.67
727.295	18.64
727.616	18.52
727.938	18.53
728.259	18.54
728.58	18.54
728.901	18.68
729.222	18.75
729.543	18.88
729.864	18.75
730.185	18.68
730.506	18.53
730.827	18.56
731.148	18.65
731.468	18.67
731.789	18.42
732.11	18.43
732.43	18.37
732.751	18.41
733.071	18.25
733.392	18.29
733.712	18.42
734.032	18.41
734.352	18.13
734.673	18.01
734.993	17.96
735.313	17.97
735.633	18.22
735.953	17.89
736.273	17.82
736.593	17.8
736.912	17.68
737.232	17.6
737.552	17.52
737.871	17.51
738.191	17.47
738.51	17.53
738.83	17.58
739.149	17.16
739.469	17.35
739.788	17.51
740.107	17.54
740.426	17.62
740.746	17.45
741.065	17.5
741.384	17.61
741.703	17.78
742.022	17.73
742.341	17.77
742.659	17.91
742.978	17.89
743.297	17.46
743.615	17.24
743.934	17.05
744.253	17.15
744.571	17.2
744.89	17.02
745.208	16.91
745.526	16.96
745.845	16.89
746.163	16.55
746.481	16.72
746.799	16.72
747.117	16.79
747.435	16.73
747.753	16.65
748.071	16.81
748.389	16.84
748.706	16.54
749.024	16.34
749.342	16.18
749.659	16.54
749.977	16.36
750.295	16.52
750.612	16.35
750.929	16.49
751.247	16.48
751.564	16.35
751.881	16.23
752.198	16.41
752.516	16.73
752.833	16.87
753.15	16.64
753.467	16.86
753.783	16.73
754.1	17.13
754.417	17.11
754.734	16.95
755.05	16.97
755.367	17.18
755.684	17.12
756.0	16.81
756.317	16.65
756.633	16.6
756.949	16.23
757.266	16.13
757.582	16.15
757.898	16.17
758.214	16.44
758.53	16.42
758.846	16.38
759.162	16.23
759.478	16.21
759.794	16.11
760.11	16.31
760.426	16.15
760.741	16.16
761.057	15.83
761.372	15.71
761.688	15.61
762.003	15.61
762.319	15.58
762.634	15.82
762.949	15.39
763.265	15.4
763.58	15.23
763.895	15.27
764.21	15.37
764.525	15.45
764.84	15.34
765.155	15.17
765.47	14.81
765.785	14.74
766.099	14.85
766.414	15.24
766.729	15.52
767.043	15.53
767.358	15.57
767.672	15.48
767.987	15.61
768.301	16.05
768.615	16.17
768.929	16.42
769.244	16.36
769.558	16.22
769.872	16.19
770.186	15.96
770.5	15.84
770.814	15.99
771.127	15.98
771.441	15.76
771.755	15.21
772.069	14.99
772.382	15.17
772.696	15.46
773.009	15.28
773.323	15.16
773.636	15.43
773.95	15.55
774.263	15.57
774.576	15.38
774.889	15.53
775.202	15.9
775.515	16.42
775.828	16.32
776.141	16.35
776.454	16.19
776.767	15.91
777.08	15.41
777.393	15.64
777.705	15.51
778.018	15.41
778.33	15.01
778.643	14.58
778.955	14.29
779.268	14.64
779.58	14.46
779.892	14.48
780.205	14.71
780.517	15.24
780.829	15.12
781.141	15.36
781.453	15.66
781.765	16.06
782.077	16.14
782.388	15.82
782.7	15.16
783.012	15.64
783.324	15.84
783.635	16.45
783.947	16.22
784.258	16.15
784.57	16.04
784.881	16.06
785.192	17.27
785.504	17.86
785.815	18
786.126	17.76
786.437	17.48
786.748	17.25
787.059	16.97
787.37	17.06
787.681	16.98
787.992	16.66
788.302	16.93
788.613	15.61
788.924	15.15
789.234	15.19
789.545	15.73
789.855	15.61
790.166	15.38
790.476	15.02
790.786	14.35
791.096	13.58
791.407	13.62
791.717	12.76
792.027	12.37
792.337	12.5
792.647	12.47
792.957	12.16
793.266	11.96
793.576	12.27
793.886	12.98
794.196	13.44
794.505	17.24
794.815	17.36
795.124	18.01
795.434	18.56
795.743	18.33
796.052	18.14
796.362	18.4
796.671	18.73
796.98	19.27
797.289	18.67
797.598	18.39
797.907	15.31
798.216	15.41
798.525	15.64
798.834	15.43
799.142	16.07
799.451	16.51
799.76	16.14
800.068	15.45
800.377	14.71
800.685	14.92
800.994	15.15
801.302	14.47
801.61	14.15
801.918	13.36
802.227	12.9
802.535	12.08
802.843	11.68
803.151	11.67
803.459	11.71
803.767	12.25
804.074	12.53
804.382	12.65
804.69	14.68
804.998	14.99
805.305	15.36
805.613	15.64
805.92	16.67
806.228	16.79
806.535	16.45
806.842	16.32
807.15	15.68
807.457	14.71
807.764	14.8
808.071	12.65
808.378	12.82
808.685	12.41
808.992	12.36
809.299	11.14
809.605	11.52
809.912	12.27
810.219	12.03
810.525	12.63
810.832	12.81
811.138	12.61
811.445	13.4
811.751	13.32
812.058	13.5
812.364	14.08
812.67	14.85
812.976	14.68
813.282	15.01
813.588	15.54
813.894	15.54
814.2	15.87
814.506	16.02
814.812	16.62
815.118	16.48
815.423	17.16
815.729	16.04
816.035	15.16
816.34	15.13
816.646	14.5
816.951	14.89
817.256	13.75
817.562	14.03
817.867	14.01
818.172	13.49
818.477	13.08
818.782	13.53
819.087	14.29
819.392	14.66
819.697	14.13
820.002	14.21
820.306	13.98
820.611	14.42
820.916	14.51
821.22	14.99
821.525	14.55
821.829	14.49
822.134	13.9
822.438	13.78
822.742	13.57
823.047	13.73
823.351	13.62
823.655	13.57
823.959	13.47
824.263	13.23
824.567	13.1
824.871	12.95
825.174	12.8
825.478	13.62
825.782	13.6
826.086	13.67
826.389	13.69
826.693	13.79
826.996	13.68
827.3	13.88
827.603	14.06
827.906	13.92
828.209	14.4
828.513	14.73
828.816	14.04
829.119	13.95
829.422	13.95
829.725	13.99
830.028	14.22
830.33	14.6
830.633	14.95
830.936	14.87
831.238	15
831.541	15.18
831.844	14.94
832.146	14.48
832.448	14.41
832.751	14.85
833.053	14.64
833.355	14.43
833.657	14.34
833.96	14.14
834.262	13.93
834.564	13.72
834.865	13.43
835.167	15
835.469	15.12
835.771	14.85
836.073	14.36
836.374	14.36
836.676	13.98
836.977	13.74
837.279	13.23
837.58	14.27
837.882	14.85
838.183	14.54
838.484	13.12
838.785	13.3
839.086	14.25
839.387	15.14
839.688	15.39
839.989	15.37
840.29	16
840.591	16.89
840.892	15.5
841.192	16.09
841.493	16.25
841.794	16.62
842.094	16.08
842.394	15.86
842.695	19.62
842.995	20.02
843.295	21
843.596	20.03
843.896	19.93
844.196	21.46
844.496	19.5
844.796	18.44
845.096	17.71
845.396	18.49
845.695	19.73
845.995	14.68
846.295	13.92
846.594	14.59
846.894	14.77
847.194	13.49
847.493	13.21
847.792	14.72
848.092	15.93
848.391	14.91
848.69	15.74
848.989	16.27
849.288	14.95
849.587	15.23
849.886	14.98
850.185	15.3
850.484	16.92
850.783	16.59
851.081	15.9
851.38	15.13
851.679	15.98
851.977	13.9
852.276	11.32
852.574	10.42
852.872	10.3
853.171	9.72
853.469	10.53
853.767	9.24
854.065	10.47
854.363	11.61
854.661	13.48
854.959	14.93
855.257	17.07
855.555	19.35
855.853	20.77
856.15	21.36
856.448	21.12
856.746	19.89
857.043	19.59
857.341	21.15
857.638	22.22
857.935	18.13
858.233	16.79
858.53	16.16
858.827	18.17
859.124	20.32
859.421	20
859.718	21.67
860.015	21.52
860.312	22.99
860.609	20.82
860.905	20.29
861.202	24.01
861.499	22.56
861.795	25.27
862.092	23.49
862.388	20.47
862.684	22.12
862.981	20.18
863.277	22.7
863.573	22.1
863.869	20.1
864.165	14.63
864.461	13.05
864.757	15.65
865.053	11.95
865.349	8.88
865.645	9.35
865.94	7.71
866.236	9.86
866.532	8.21
866.827	9.75
867.123	11.81
867.418	16.9
867.713	15.36
868.009	12.04
868.304	12.57
868.599	16.28
868.894	16.37
869.189	16.82
869.484	16.85
869.779	13.87
870.074	10.64
870.369	10.12
870.663	10.58
870.958	11.33
871.252	14.51
871.547	13.6
871.842	12.09
872.136	12.96
872.43	14.08
872.725	14.85
873.019	17.2
873.313	19.19
873.607	19.08
873.901	16.29
874.195	20.01
874.489	20.1
874.783	21.24
875.077	19.85
875.37	19.21
875.664	16.84
875.958	13.96
876.251	16.31
876.545	18.76
876.838	19.38
877.132	22.21
877.425	20.48
877.718	19.33
878.011	17.16
878.305	15.88
878.598	13.26
878.891	12.61
879.184	14.81
879.476	17.41
879.769	14.28
880.062	10.26
880.355	7.79
880.647	4.88
880.94	7.28
881.232	8.25
881.525	8.47
881.817	8.74
882.11	10.86
882.402	9.3
882.694	8.37
882.986	8.81
883.278	11.87
883.57	12.86
883.862	13.78
884.154	12.86
884.446	13.27
884.738	13.45
885.03	14.17
885.321	14.3
885.613	14.55
885.904	13.91
886.196	14.35
886.487	13.75
886.779	13.61
887.07	13.6
887.361	13.49
887.652	13.2
887.943	13.37
888.234	13.24
888.525	13.06
888.816	14.26
889.107	15.41
889.398	16.53
889.689	17.04
889.979	17.6
890.27	17.32
890.56	19.3
890.851	20.36
891.141	21.81
891.432	22.33
891.722	23.16
