Data from groin3_Reflection__2__15-07-19-666.txt Node

Date: Thu Aug 04 15:07:19 AEST 2022
User: kathy
Spectrometer: JAZA2503
Trigger mode: 0
Integration Time (sec): 2.439700E-1
Scans to average: 10
Electric dark correction enabled: true
Nonlinearity correction enabled: true
Boxcar width: 5
XAxis mode: Wavelengths
Number of Pixels in Spectrum: 2048
>>>>>Begin Spectral Data<<<<<
189.467	295.77
189.852	200.62
190.237	160.71
190.622	187.91
191.007	186.41
191.392	76.62
191.777	13.44
192.162	-24.17
192.546	-51.94
192.931	-572.16
193.316	436.67
193.701	715.76
194.086	248.01
194.47	139.33
194.855	-3867.7
195.24	-300.05
195.624	96.74
196.009	-20.85
196.393	-112.01
196.778	-266.66
197.163	-36.14
197.547	7.26
197.931	-2.57
198.316	22.6
198.7	16.6
199.085	21.97
199.469	27
199.853	26.28
200.237	23.56
200.622	24.49
201.006	24.12
201.39	17.88
201.774	9.69
202.158	6.01
202.542	-1.9
202.926	-3.45
203.31	1.55
203.694	-4.45
204.078	-4.89
204.462	5.32
204.846	5.66
205.23	9.1
205.614	11.3
205.998	20.62
206.381	25.04
206.765	29.75
207.149	27.58
207.532	19.28
207.916	20.51
208.3	19.95
208.683	14.69
209.067	19.98
209.45	15.84
209.834	21.1
210.217	16.57
210.601	13.87
210.984	20.57
211.367	28.32
211.751	30.11
212.134	32.89
212.517	38.24
212.901	38.26
213.284	35.4
213.667	36.23
214.05	28.94
214.433	29.43
214.816	30.68
215.199	25.9
215.582	20.96
215.965	13.72
216.348	9.3
216.731	0.1
217.114	-4.82
217.497	-9.41
217.88	-12.52
218.262	-15.66
218.645	-16.44
219.028	-14.37
219.411	-20.05
219.793	-17.01
220.176	-13.82
220.559	-11.65
220.941	-7.12
221.324	-2.42
221.706	2.35
222.089	6.4
222.471	9.34
222.853	8.07
223.236	8.2
223.618	10.53
224	10.62
224.383	10.89
224.765	9.87
225.147	10.05
225.529	10.07
225.912	7.38
226.294	4.7
226.676	3.14
227.058	2.26
227.44	1.87
227.822	1.74
228.204	2.55
228.586	2.42
228.968	2.46
229.349	2.17
229.731	1.94
230.113	1.95
230.495	2.26
230.877	2.43
231.258	2.94
231.64	2.76
232.022	2.61
232.403	2.54
232.785	2.58
233.166	2.62
233.548	2.47
233.929	2.19
234.311	2.75
234.692	2.59
235.073	2.4
235.455	2.03
235.836	2.73
236.217	3.04
236.599	2.63
236.98	2.7
237.361	2.65
237.742	2.81
238.123	2.87
238.504	2.75
238.885	2.91
239.266	2.99
239.647	2.7
240.028	2.55
240.409	2.35
240.79	2.46
241.171	2.28
241.552	2.18
241.933	2.06
242.313	2.28
242.694	2.25
243.075	2.37
243.456	2.36
243.836	2.45
244.217	2.53
244.597	2.41
244.978	2.31
245.358	2.53
245.739	2.6
246.119	2.63
246.5	2.49
246.88	2.41
247.26	2.23
247.641	2.16
248.021	2.19
248.401	2.12
248.781	2.24
249.162	2.35
249.542	2.19
249.922	2.14
250.302	2.15
250.682	2.1
251.062	2.13
251.442	2.14
251.822	2.16
252.202	2.08
252.582	1.99
252.961	1.96
253.341	1.88
253.721	2.06
254.101	2.08
254.48	2.12
254.86	2.36
255.24	2.44
255.619	2.53
255.999	2.64
256.378	2.69
256.758	2.74
257.137	2.7
257.517	2.51
257.896	2.31
258.276	2.24
258.655	1.93
259.034	1.61
259.414	1.51
259.793	1.4
260.172	1.28
260.551	1.19
260.93	1.05
261.309	1.01
261.688	0.99
262.068	1.01
262.447	0.97
262.825	1.04
263.204	1.07
263.583	1
263.962	0.98
264.341	1.06
264.72	1.11
265.099	1.16
265.477	1.14
265.856	1.19
266.235	1.22
266.613	1.2
266.992	1.14
267.371	1.2
267.749	1.31
268.128	1.22
268.506	1.2
268.884	1.25
269.263	1.29
269.641	1.26
270.02	1.34
270.398	1.24
270.776	1.27
271.154	1.31
271.533	1.39
271.911	1.37
272.289	1.4
272.667	1.35
273.045	1.33
273.423	1.31
273.801	1.36
274.179	1.29
274.557	1.32
274.935	1.27
275.313	1.3
275.69	1.27
276.068	1.22
276.446	1.27
276.824	1.21
277.201	1.21
277.579	1.23
277.957	1.17
278.334	1.16
278.712	1.2
279.089	1.13
279.467	1.06
279.844	1.04
280.222	1.02
280.599	1
280.976	1.14
281.354	1.11
281.731	1.08
282.108	1.13
282.485	1.12
282.863	1.06
283.24	1.15
283.617	1.17
283.994	1.15
284.371	1.13
284.748	1.13
285.125	1.1
285.502	1.12
285.879	1.09
286.256	1.1
286.633	1.17
287.009	1.22
287.386	1.26
287.763	1.3
288.139	1.31
288.516	1.37
288.893	1.41
289.269	1.44
289.646	1.48
290.022	1.56
290.399	1.58
290.775	1.56
291.152	1.59
291.528	1.6
291.904	1.57
292.281	1.61
292.657	1.65
293.033	1.68
293.41	1.68
293.786	1.69
294.162	1.73
294.538	1.74
294.914	1.82
295.29	1.86
295.666	1.94
296.042	2.04
296.418	2.13
296.794	2.2
297.17	2.28
297.546	2.4
297.921	2.46
298.297	2.53
298.673	2.62
299.048	2.7
299.424	2.77
299.8	2.82
300.175	2.89
300.551	2.94
300.926	3.01
301.302	3.08
301.677	3.1
302.053	3.22
302.428	3.3
302.803	3.41
303.179	3.48
303.554	3.57
303.929	3.65
304.304	3.75
304.68	3.86
305.055	3.96
305.43	4.06
305.805	4.16
306.18	4.18
306.555	4.22
306.93	4.26
307.305	4.29
307.679	4.34
308.054	4.39
308.429	4.4
308.804	4.39
309.179	4.41
309.553	4.41
309.928	4.44
310.303	4.5
310.677	4.57
311.052	4.58
311.426	4.66
311.801	4.69
312.175	4.7
312.55	4.76
312.924	4.83
313.298	4.88
313.673	4.89
314.047	4.93
314.421	5.01
314.795	5.04
315.17	5.12
315.544	5.16
315.918	5.21
316.292	5.35
316.666	5.44
317.04	5.52
317.414	5.62
317.788	5.79
318.162	5.98
318.535	6.09
318.909	6.2
319.283	6.39
319.657	6.53
320.03	6.73
320.404	6.9
320.778	7.29
321.151	7.72
321.525	8.3
321.898	8.94
322.272	9.55
322.645	10.27
323.019	10.99
323.392	11.76
323.765	12.66
324.139	13.62
324.512	14.67
324.885	15.69
325.258	16.75
325.632	17.61
326.005	18.39
326.378	19.07
326.751	19.54
327.124	19.9
327.497	20.13
327.87	20.33
328.243	20.44
328.616	20.57
328.988	20.57
329.361	20.56
329.734	20.6
330.107	20.53
330.479	20.42
330.852	20.33
331.225	20.25
331.597	20.12
331.97	19.9
332.342	19.67
332.715	19.47
333.087	19.25
333.46	19.07
333.832	18.92
334.204	18.92
334.577	18.9
334.949	18.81
335.321	18.75
335.693	18.6
336.065	18.42
336.438	18.17
336.81	18
337.182	17.82
337.554	17.63
337.926	17.53
338.298	17.39
338.669	17.23
339.041	17.14
339.413	17.08
339.785	16.95
340.157	16.81
340.528	16.79
340.9	16.69
341.272	16.64
341.643	16.6
342.015	16.64
342.386	16.7
342.758	16.8
343.129	16.91
343.501	16.94
343.872	16.96
344.243	16.95
344.615	16.89
344.986	16.82
345.357	16.8
345.728	16.76
346.099	16.76
346.471	16.75
346.842	16.76
347.213	16.72
347.584	16.72
347.955	16.71
348.326	16.63
348.697	16.63
349.067	16.6
349.438	16.67
349.809	16.74
350.18	16.89
350.55	16.93
350.921	16.98
351.292	17.05
351.662	17.12
352.033	17.17
352.403	17.17
352.774	17.21
353.144	17.28
353.515	17.27
353.885	17.26
354.255	17.23
354.626	17.23
354.996	17.25
355.366	17.24
355.736	17.24
356.107	17.2
356.477	17.24
356.847	17.26
357.217	17.22
357.587	17.28
357.957	17.31
358.327	17.35
358.697	17.4
359.066	17.41
359.436	17.44
359.806	17.47
360.176	17.51
360.546	17.56
360.915	17.58
361.285	17.63
361.654	17.58
362.024	17.57
362.393	17.59
362.763	17.59
363.132	17.59
363.502	17.59
363.871	17.61
364.24	17.65
364.61	17.64
364.979	17.67
365.348	17.68
365.717	17.74
366.087	17.76
366.456	17.77
366.825	17.78
367.194	17.82
367.563	17.84
367.932	17.83
368.301	17.84
368.669	17.86
369.038	17.85
369.407	17.89
369.776	17.89
370.145	17.88
370.513	17.89
370.882	17.92
371.25	17.94
371.619	17.95
371.988	17.97
372.356	17.99
372.724	17.99
373.093	18.01
373.461	17.98
373.83	17.99
374.198	18.01
374.566	18.01
374.934	18.03
375.303	18.04
375.671	18.06
376.039	18.07
376.407	18.11
376.775	18.14
377.143	18.19
377.511	18.23
377.879	18.24
378.247	18.28
378.615	18.34
378.982	18.35
379.35	18.37
379.718	18.39
380.086	18.41
380.453	18.39
380.821	18.42
381.188	18.41
381.556	18.43
381.923	18.5
382.291	18.55
382.658	18.52
383.026	18.54
383.393	18.57
383.76	18.62
384.128	18.66
384.495	18.7
384.862	18.72
385.229	18.75
385.596	18.77
385.963	18.77
386.33	18.77
386.697	18.84
387.064	18.83
387.431	18.84
387.798	18.85
388.165	18.85
388.532	18.86
388.899	18.87
389.265	18.88
389.632	18.89
389.999	18.89
390.365	18.9
390.732	18.88
391.098	18.91
391.465	18.9
391.831	18.9
392.198	18.91
392.564	18.9
392.93	18.92
393.297	18.93
393.663	18.96
394.029	18.98
394.395	19.01
394.762	19.03
395.128	19.04
395.494	19.09
395.86	19.13
396.226	19.17
396.592	19.2
396.958	19.24
397.323	19.27
397.689	19.31
398.055	19.37
398.421	19.39
398.787	19.44
399.152	19.49
399.518	19.5
399.883	19.52
400.249	19.56
400.615	19.62
400.98	19.62
401.345	19.62
401.711	19.62
402.076	19.6
402.442	19.61
402.807	19.61
403.172	19.61
403.537	19.62
403.902	19.63
404.268	19.62
404.633	19.62
404.998	19.61
405.363	19.62
405.728	19.64
406.093	19.67
406.457	19.69
406.822	19.72
407.187	19.76
407.552	19.81
407.917	19.86
408.281	19.88
408.646	19.9
409.011	19.95
409.375	20.01
409.74	20.02
410.104	20.05
410.469	20.07
410.833	20.1
411.197	20.07
411.562	20.07
411.926	20.08
412.29	20.11
412.655	20.12
413.019	20.15
413.383	20.18
413.747	20.2
414.111	20.21
414.475	20.25
414.839	20.27
415.203	20.35
415.567	20.41
415.931	20.45
416.295	20.48
416.658	20.5
417.022	20.53
417.386	20.53
417.749	20.55
418.113	20.58
418.477	20.59
418.84	20.59
419.204	20.6
419.567	20.59
419.931	20.59
420.294	20.61
420.657	20.67
421.021	20.69
421.384	20.72
421.747	20.77
422.11	20.83
422.473	20.86
422.836	20.9
423.199	20.94
423.562	20.97
423.925	20.99
424.288	21
424.651	20.98
425.014	21.01
425.377	21.06
425.74	21.07
426.102	21.08
426.465	21.13
426.828	21.15
427.19	21.16
427.553	21.22
427.916	21.22
428.278	21.25
428.641	21.31
429.003	21.31
429.365	21.31
429.728	21.31
430.09	21.32
430.452	21.3
430.814	21.3
431.177	21.32
431.539	21.31
431.901	21.35
432.263	21.37
432.625	21.38
432.987	21.41
433.349	21.44
433.711	21.5
434.072	21.56
434.434	21.63
434.796	21.69
435.158	21.75
435.519	21.79
435.881	21.86
436.243	21.91
436.604	21.95
436.966	21.97
437.327	22.01
437.689	22.04
438.05	22.03
438.411	22.06
438.773	22.1
439.134	22.12
439.495	22.16
439.856	22.15
440.218	22.17
440.579	22.18
440.94	22.24
441.301	22.28
441.662	22.34
442.023	22.41
442.384	22.44
442.745	22.46
443.105	22.48
443.466	22.52
443.827	22.6
444.188	22.64
444.548	22.72
444.909	22.75
445.269	22.77
445.63	22.75
445.99	22.74
446.351	22.81
446.711	22.8
447.072	22.82
447.432	22.85
447.792	22.86
448.153	22.89
448.513	22.9
448.873	22.93
449.233	22.95
449.593	22.98
449.953	23
450.313	22.98
450.673	23.04
451.033	23.11
451.393	23.14
451.753	23.18
452.113	23.48
452.472	23.49
452.832	23.5
453.192	23.52
453.551	23.54
453.911	23.58
454.271	23.58
454.63	23.61
454.989	23.61
455.349	23.61
455.708	23.62
456.068	23.5
456.427	23.54
456.786	23.57
457.145	23.63
457.505	23.69
457.864	23.77
458.223	23.87
458.582	23.96
458.941	24.05
459.3	24.14
459.659	24.2
460.018	24.25
460.376	24.33
460.735	24.41
461.094	24.44
461.453	24.48
461.811	24.51
462.17	24.53
462.529	24.54
462.887	24.54
463.246	24.57
463.604	24.59
463.963	24.63
464.321	24.69
464.679	24.69
465.038	24.71
465.396	24.74
465.754	24.77
466.112	24.82
466.47	24.9
466.828	24.98
467.186	25.05
467.544	25.11
467.902	25.16
468.26	25.15
468.618	25.2
468.976	25.24
469.334	25.29
469.692	25.31
470.049	25.31
470.407	25.29
470.765	25.31
471.122	25.34
471.48	25.41
471.837	25.46
472.195	25.55
472.552	25.66
472.909	25.72
473.267	25.77
473.624	25.85
473.981	25.93
474.338	25.97
474.696	26
475.053	26.06
475.41	26.07
475.767	26.09
476.124	26.07
476.481	26.07
476.838	26.09
477.194	26.14
477.551	26.18
477.908	26.21
478.265	26.27
478.621	26.33
478.978	26.36
479.335	26.41
479.691	26.48
480.048	26.54
480.404	26.59
480.761	26.63
481.117	26.67
481.473	26.68
481.83	26.71
482.186	26.76
482.542	26.76
482.898	26.78
483.255	26.82
483.611	26.86
483.967	26.89
484.323	26.91
484.679	26.94
485.035	26.96
485.39	27
485.746	27.06
486.102	27.07
486.458	27.11
486.814	27.17
487.169	27.21
487.525	27.22
487.88	27.25
488.236	27.28
488.591	27.31
488.947	27.33
489.302	27.31
489.658	27.33
490.013	27.33
490.368	27.35
490.723	27.34
491.079	27.32
491.434	27.35
491.789	27.35
492.144	27.39
492.499	27.42
492.854	27.44
493.209	27.48
493.564	27.52
493.919	27.55
494.273	27.58
494.628	27.61
494.983	27.65
495.338	27.68
495.692	27.7
496.047	27.7
496.401	27.7
496.756	27.69
497.11	27.7
497.465	27.68
497.819	27.65
498.173	27.64
498.528	27.66
498.882	27.66
499.236	27.68
499.59	27.7
499.944	27.73
500.298	27.75
500.652	27.76
501.006	27.78
501.36	27.8
501.714	27.82
502.068	27.84
502.422	27.85
502.776	27.88
503.129	27.91
503.483	27.94
503.837	27.98
504.19	28.02
504.544	28.08
504.897	28.08
505.251	28.08
505.604	28.1
505.958	28.1
506.311	28.08
506.664	28.05
507.017	27.99
507.371	27.95
507.724	27.88
508.077	27.85
508.43	27.81
508.783	27.82
509.136	27.82
509.489	27.8
509.842	27.78
510.195	27.77
510.547	27.76
510.9	27.77
511.253	27.73
511.606	27.73
511.958	27.67
512.311	27.63
512.663	27.56
513.016	27.51
513.368	27.48
513.721	27.45
514.073	27.43
514.425	27.38
514.778	27.35
515.13	27.34
515.482	27.31
515.834	27.31
516.186	27.3
516.538	27.32
516.89	27.33
517.242	27.37
517.594	27.39
517.946	27.39
518.298	27.42
518.65	27.43
519.001	27.43
519.353	27.44
519.705	27.42
520.056	27.39
520.408	27.34
520.759	27.28
521.111	27.25
521.462	27.2
521.814	27.17
522.165	27.16
522.516	27.13
522.868	27.1
523.219	27.09
523.57	27.08
523.921	27.04
524.272	27
524.623	26.95
524.974	26.89
525.325	26.85
525.676	26.8
526.027	26.74
526.378	26.68
526.728	26.64
527.079	26.59
527.43	26.53
527.78	26.54
528.131	26.5
528.481	26.49
528.832	26.44
529.182	26.43
529.533	26.41
529.883	26.38
530.233	26.36
530.584	26.33
530.934	26.25
531.284	26.23
531.634	26.11
531.984	26.12
532.334	26.07
532.684	26.02
533.034	25.95
533.384	25.91
533.734	25.85
534.084	25.78
534.434	25.76
534.783	25.75
535.133	25.69
535.483	25.67
535.832	25.57
536.182	25.52
536.531	25.47
536.881	25.41
537.23	25.36
537.58	25.29
537.929	25.26
538.278	26.07
538.628	26
538.977	25.97
539.326	25.92
539.675	25.89
540.024	25.85
540.373	25.79
540.722	25.77
541.071	25.72
541.42	25.7
541.769	25.64
542.117	24.7
542.466	24.65
542.815	24.6
543.163	24.53
543.512	24.46
543.861	24.39
544.209	24.34
544.558	24.29
544.906	24.25
545.254	24.18
545.603	24.12
545.951	24.07
546.299	24.01
546.647	23.99
546.996	23.94
547.344	23.91
547.692	23.88
548.04	23.87
548.388	23.83
548.736	23.8
549.083	23.77
549.431	23.72
549.779	23.67
550.127	23.63
550.475	23.54
550.822	23.47
551.17	23.41
551.517	23.38
551.865	23.28
552.212	23.22
552.56	23.13
552.907	23.05
553.254	22.96
553.602	22.87
553.949	22.82
554.296	22.74
554.643	22.75
554.99	22.69
555.337	22.58
555.684	22.56
556.031	22.47
556.378	22.4
556.725	22.31
557.072	22.3
557.419	22.25
557.765	22.15
558.112	22.09
558.459	22.01
558.805	21.94
559.152	21.84
559.498	21.77
559.845	21.71
560.191	21.65
560.538	21.61
560.884	21.53
561.23	21.47
561.576	21.41
561.923	21.33
562.269	21.25
562.615	21.22
562.961	21.17
563.307	21.06
563.653	21.02
563.999	20.97
564.344	20.9
564.69	20.83
565.036	20.76
565.382	20.68
565.727	20.62
566.073	20.59
566.419	20.5
566.764	20.47
567.11	20.42
567.455	20.33
567.8	20.27
568.146	20.21
568.491	20.17
568.836	20.11
569.181	20.06
569.527	20.01
569.872	19.9
570.217	19.81
570.562	19.75
570.907	19.68
571.252	19.61
571.597	19.51
571.941	19.48
572.286	19.38
572.631	19.36
572.976	19.33
573.32	19.29
573.665	19.26
574.009	19.25
574.354	19.24
574.698	19.23
575.043	19.21
575.387	19.17
575.731	19.15
576.076	19.1
576.42	19.08
576.764	19.05
577.108	19.01
577.452	18.98
577.796	18.97
578.14	18.91
578.484	18.86
578.828	18.84
579.172	18.77
579.516	18.75
579.86	18.73
580.203	18.72
580.547	18.64
580.891	18.62
581.234	18.6
581.578	18.53
581.921	18.5
582.264	18.49
582.608	18.44
582.951	18.44
583.294	18.41
583.638	18.39
583.981	18.37
584.324	18.35
584.667	18.31
585.01	18.27
585.353	18.24
585.696	18.22
586.039	18.2
586.382	18.18
586.725	18.15
587.067	18.12
587.41	18.07
587.753	18.05
588.095	18.01
588.438	17.99
588.781	17.96
589.123	17.94
589.465	17.92
589.808	17.88
590.15	17.84
590.492	17.81
590.835	17.76
591.177	17.69
591.519	17.68
591.861	17.64
592.203	17.62
592.545	17.62
592.887	17.58
593.229	17.56
593.571	17.56
593.913	17.52
594.254	17.48
594.596	17.47
594.938	17.45
595.279	17.43
595.621	17.41
595.963	17.33
596.304	17.32
596.645	17.29
596.987	17.23
597.328	17.21
597.669	17.18
598.011	17.15
598.352	17.09
598.693	17.06
599.034	17.05
599.375	17.03
599.716	17
600.057	16.98
600.398	16.94
600.739	16.92
601.08	16.89
601.42	16.88
601.761	16.87
602.102	16.86
602.442	16.85
602.783	16.8
603.123	16.77
603.464	16.75
603.804	16.71
604.145	16.7
604.485	16.68
604.825	16.66
605.166	16.65
605.506	16.65
605.846	16.64
606.186	16.62
606.526	16.58
606.866	16.58
607.206	16.55
607.546	16.52
607.886	16.5
608.225	16.47
608.565	16.43
608.905	16.4
609.245	16.35
609.584	16.34
609.924	16.27
610.263	16.27
610.603	16.26
610.942	16.25
611.281	16.22
611.621	16.21
611.96	16.18
612.299	16.15
612.638	16.12
612.978	16.07
613.317	16.06
613.656	16.04
613.995	16.01
614.334	16
614.672	15.91
615.011	15.85
615.35	15.81
615.689	15.78
616.027	15.76
616.366	15.75
616.705	15.72
617.043	15.7
617.382	15.65
617.72	15.64
618.059	15.57
618.397	15.55
618.735	15.53
619.073	15.49
619.412	15.43
619.75	15.4
620.088	15.39
620.426	15.34
620.764	15.31
621.102	15.28
621.44	15.24
621.778	15.21
622.115	15.2
622.453	15.19
622.791	15.18
623.129	15.11
623.466	15.07
623.804	15.02
624.141	14.97
624.479	14.92
624.816	14.88
625.153	14.87
625.491	14.82
625.828	14.75
626.165	14.72
626.502	14.72
626.84	14.71
627.177	14.67
627.514	14.61
627.851	14.58
628.188	14.51
628.524	14.42
628.861	14.41
629.198	14.42
629.535	14.41
629.871	14.41
630.208	14.41
630.545	14.33
630.881	14.28
631.218	14.24
631.554	14.19
631.89	14.19
632.227	14.17
632.563	14.11
632.899	14.03
633.235	13.97
633.572	13.94
633.908	13.88
634.244	13.87
634.58	13.86
634.916	13.85
635.251	13.83
635.587	13.81
635.923	13.81
636.259	13.78
636.595	13.74
636.93	13.68
637.266	13.64
637.601	13.56
637.937	13.45
638.272	13.39
638.608	13.34
638.943	13.28
639.278	13.19
639.613	13.1
639.949	13.09
640.284	13.02
640.619	13.05
640.954	13
641.289	12.97
641.624	12.95
641.959	12.95
642.294	12.87
642.628	12.8
642.963	12.83
643.298	12.82
643.632	12.87
643.967	12.87
644.302	12.79
644.636	12.75
644.971	12.71
645.305	12.74
645.639	12.65
645.974	12.61
646.308	12.54
646.642	12.57
646.976	12.57
647.31	12.46
647.644	12.42
647.978	12.34
648.312	12.32
648.646	12.28
648.98	12.19
649.314	12.16
649.647	12.17
649.981	12.17
650.315	12
650.648	11.87
650.982	11.82
651.315	11.76
651.649	11.78
651.982	11.74
652.316	11.76
652.649	11.74
652.982	11.72
653.315	11.69
653.648	11.7
653.982	11.72
654.315	11.81
654.648	11.82
654.981	11.9
655.313	11.93
655.646	11.91
655.979	11.84
656.312	11.83
656.644	11.78
656.977	11.72
657.31	11.61
657.642	11.49
657.975	11.42
658.307	11.34
658.64	11.21
658.972	11.11
659.304	11.02
659.636	11.01
659.969	10.92
660.301	10.79
660.633	10.78
660.965	10.75
661.297	10.84
661.629	10.81
661.961	10.73
662.292	10.75
662.624	10.71
662.956	10.68
663.288	10.65
663.619	10.72
663.951	10.81
664.282	10.74
664.614	10.74
664.945	10.65
665.276	10.58
665.608	10.59
665.939	10.53
666.27	10.43
666.601	10.49
666.933	10.51
667.264	10.41
667.595	10.41
667.926	10.42
668.256	10.42
668.587	10.34
668.918	10.27
669.249	10.24
669.58	10.19
669.91	10.27
670.241	10.14
670.571	10.13
670.902	10.11
671.232	10.11
671.563	10.07
671.893	10.08
672.223	10.15
672.554	10.26
672.884	10.28
673.214	10.29
673.544	10.19
673.874	10.19
674.204	10.19
674.534	10.22
674.864	10.18
675.194	10.16
675.524	10.13
675.853	10.1
676.183	10.02
676.513	10.05
676.842	9.99
677.172	10.01
677.501	10.03
677.831	9.92
678.16	9.88
678.489	9.83
678.819	9.86
679.148	9.82
679.477	9.91
679.806	9.88
680.135	9.77
680.464	9.8
680.793	9.79
681.122	9.78
681.451	9.84
681.78	9.79
682.108	9.85
682.437	9.76
682.766	9.73
683.094	9.59
683.423	9.56
683.751	9.63
684.08	9.66
684.408	9.6
684.737	9.56
685.065	9.44
685.393	9.52
685.721	9.41
686.049	9.4
686.377	9.28
686.705	9.28
687.033	9.24
687.361	9.18
687.689	9.16
688.017	9.19
688.345	9.08
688.673	9.08
689.0	8.95
689.328	8.92
689.655	8.96
689.983	9.06
690.31	9.08
690.638	9.18
690.965	9.1
691.292	9.07
691.62	9.08
691.947	9.14
692.274	9.17
692.601	9.16
692.928	9.23
693.255	9.17
693.582	9.16
693.909	9.1
694.236	8.93
694.562	8.93
694.889	8.96
695.216	8.96
695.542	9.04
695.869	8.95
696.196	9.05
696.522	9.01
696.848	8.99
697.175	8.91
697.501	8.86
697.827	8.86
698.154	8.83
698.48	8.71
698.806	8.68
699.132	8.66
699.458	8.69
699.784	8.63
700.11	8.6
700.435	8.6
700.761	8.62
701.087	8.61
701.413	8.66
701.738	8.72
702.064	8.72
702.389	8.69
702.715	8.63
703.04	8.55
703.366	8.57
703.691	8.59
704.016	8.67
704.341	8.76
704.666	8.83
704.992	8.77
705.317	8.77
705.642	8.83
705.967	8.73
706.291	8.69
706.616	8.75
706.941	8.7
707.266	8.78
707.59	8.69
707.915	8.7
708.24	8.61
708.564	8.61
708.889	8.59
709.213	8.53
709.537	8.63
709.862	8.55
710.186	8.63
710.51	8.59
710.834	8.5
711.158	8.38
711.482	8.19
711.806	8.2
712.13	8.19
712.454	8.19
712.778	8.26
713.102	8.14
713.426	8.19
713.749	8.15
714.073	8.24
714.396	8.22
714.72	8.34
715.043	8.3
715.367	8.4
715.69	8.3
716.013	8.24
716.337	8.25
716.66	8.33
716.983	8.48
717.306	8.53
717.629	8.46
717.952	8.25
718.275	8.07
718.598	8.07
718.921	7.84
719.243	8.1
719.566	8.15
719.889	8.28
720.211	8.26
720.534	8.21
720.856	8.14
721.179	8.11
721.501	8.33
721.823	8.54
722.146	8.61
722.468	8.62
722.79	8.38
723.112	8.37
723.434	8.11
723.756	8.16
724.078	8.08
724.4	7.95
724.722	7.98
725.044	7.95
725.366	7.77
725.687	7.68
726.009	7.82
726.33	7.89
726.652	7.78
726.973	7.86
727.295	7.79
727.616	7.72
727.938	7.82
728.259	7.93
728.58	7.97
728.901	8.24
729.222	8.53
729.543	8.41
729.864	8.43
730.185	8.44
730.506	8.24
730.827	8.31
731.148	8.33
731.468	8.15
731.789	7.91
732.11	7.78
732.43	7.58
732.751	7.43
733.071	7.33
733.392	7.35
733.712	7.58
734.032	7.69
734.352	7.57
734.673	7.42
734.993	7.5
735.313	7.61
735.633	7.94
735.953	8.01
736.273	8.07
736.593	8.18
736.912	7.97
737.232	7.76
737.552	7.73
737.871	7.66
738.191	7.88
738.51	8.08
738.83	7.92
739.149	7.69
739.469	7.76
739.788	7.83
740.107	7.94
740.426	8.2
740.746	8.3
741.065	8.4
741.384	8.53
741.703	8.51
742.022	8.31
742.341	8.21
742.659	8.24
742.978	8.08
743.297	7.68
743.615	7.37
743.934	6.93
744.253	6.67
744.571	6.76
744.89	6.6
745.208	6.63
745.526	6.75
745.845	6.83
746.163	6.74
746.481	7.06
746.799	7.26
747.117	7.61
747.435	8.14
747.753	8.09
748.071	8.02
748.389	8.13
748.706	8.05
749.024	7.86
749.342	7.9
749.659	8.04
749.977	7.62
750.295	7.57
750.612	7.26
750.929	6.98
751.247	7.38
751.564	7.25
751.881	7.35
752.198	7.47
752.516	7.51
752.833	7.68
753.15	7.61
753.467	7.82
753.783	7.95
754.1	8.27
754.417	8.18
754.734	8.03
755.05	8.19
755.367	7.93
755.684	7.85
756.0	7.9
756.317	7.57
756.633	7.75
756.949	7.42
757.266	7.44
757.582	7.27
757.898	7.72
758.214	7.86
758.53	7.64
758.846	7.87
759.162	7.65
759.478	7.56
759.794	7.67
760.11	7.39
760.426	7.36
760.741	7.19
761.057	7.16
761.372	6.74
761.688	6.45
762.003	6.43
762.319	6.35
762.634	6.72
762.949	6.8
763.265	6.74
763.58	6.88
763.895	6.81
764.21	6.91
764.525	6.89
764.84	6.94
765.155	6.92
765.47	6.81
765.785	6.81
766.099	6.7
766.414	6.65
766.729	6.63
767.043	6.74
767.358	7.01
767.672	6.84
767.987	6.99
768.301	7.13
768.615	7.34
768.929	7.43
769.244	7.26
769.558	7.32
769.872	7.5
770.186	7.77
770.5	7.57
770.814	7.62
771.127	8.07
771.441	7.99
771.755	7.8
772.069	7.51
772.382	7.99
772.696	8.35
773.009	8.03
773.323	7.77
773.636	7.51
773.95	7.27
774.263	7.05
774.576	6.65
774.889	6.81
775.202	6.95
775.515	7.22
775.828	6.92
776.141	6.53
776.454	6.46
776.767	6.32
777.08	6.33
777.393	6.88
777.705	7.06
778.018	6.92
778.33	6.33
778.643	6
778.955	5.7
779.268	5.85
779.58	6.16
779.892	6.35
780.205	6.44
780.517	6.89
780.829	6.54
781.141	6.95
781.453	7.5
781.765	8.33
782.077	8.84
782.388	9.01
782.7	8.65
783.012	9.07
783.324	9.13
783.635	9.77
783.947	9.22
784.258	9.09
784.57	8.67
784.881	7.99
785.192	8.02
785.504	8.11
785.815	8.27
786.126	8.2
786.437	8.22
786.748	7.87
787.059	7.37
787.37	7.66
787.681	7.71
787.992	7.92
788.302	8.71
788.613	8.96
788.924	8.37
789.234	8.84
789.545	9.65
789.855	9.29
790.166	9.3
790.476	9.41
790.786	9.16
791.096	8.98
791.407	8.73
791.717	8.43
792.027	7.57
792.337	8.13
792.647	7.72
792.957	6.99
793.266	6.96
793.576	7.33
793.886	7.43
794.196	7.99
794.505	10.61
794.815	10.69
795.124	10.72
795.434	11.26
795.743	10.59
796.052	9.96
796.362	10.13
796.671	10.46
796.98	10.57
797.289	9.84
797.598	8.98
797.907	6.83
798.216	6.89
798.525	6.84
798.834	6.27
799.142	6.89
799.451	7.58
799.76	7.78
800.068	7.73
800.377	7.59
800.685	8.22
800.994	8.67
801.302	8.07
801.61	7.78
801.918	7.27
802.227	6.83
802.535	6.46
802.843	6.1
803.151	5.15
803.459	4.67
803.767	4.36
804.074	3.99
804.382	4.32
804.69	5.4
804.998	5.89
805.305	6.46
805.613	7.43
805.92	7.84
806.228	7.87
806.535	8.31
806.842	8.35
807.15	8.29
807.457	8.31
807.764	7.79
808.071	6.34
808.378	6.17
808.685	5.42
808.992	4.44
809.299	4.13
809.605	4.6
809.912	5.58
810.219	4.83
810.525	6.1
810.832	6.48
811.138	6.98
811.445	8.21
811.751	7.86
812.058	8.42
812.364	9.8
812.67	10.39
812.976	10.6
813.282	10.12
813.588	10.94
813.894	9.99
814.2	10.06
814.506	10.2
814.812	9.93
815.118	9.57
815.423	9
815.729	7.66
816.035	6.19
816.34	4.74
816.646	4.03
816.951	3.79
817.256	3.15
817.562	3.49
817.867	3.53
818.172	3.44
818.477	3.37
818.782	4.74
819.087	5.34
819.392	6.52
819.697	6.17
820.002	5.87
820.306	6.19
820.611	6.64
820.916	7.02
821.22	7.07
821.525	7.19
821.829	7.4
822.134	6.9
822.438	6.9
822.742	6.77
823.047	7.33
823.351	7.64
823.655	7.46
823.959	7.46
824.263	7.26
824.567	7.32
824.871	7.15
825.174	7.31
825.478	9.49
825.782	9.72
826.086	9.73
826.389	9.59
826.693	9.27
826.996	9.17
827.3	9.22
827.603	9.24
827.906	9.09
828.209	9.07
828.513	8.82
828.816	6.2
829.119	5.95
829.422	5.89
829.725	5.86
830.028	6.27
830.33	6.66
830.633	6.97
830.936	7.08
831.238	7.14
831.541	7.73
831.844	8.02
832.146	7.63
832.448	7.67
832.751	7.9
833.053	8.07
833.355	7.88
833.657	7.77
833.96	7.08
834.262	6.31
834.564	6.18
834.865	6.01
835.167	6.56
835.469	6.95
835.771	6.66
836.073	6.38
836.374	6.89
836.676	6.82
836.977	7.06
837.279	7.1
837.58	7.94
837.882	8.66
838.183	7.94
838.484	7.99
838.785	7.94
839.086	8.65
839.387	8.89
839.688	8.65
839.989	9.84
840.29	9.55
840.591	10.44
840.892	10.15
841.192	10.67
841.493	11.09
841.794	10.8
842.094	11.09
842.394	11.14
842.695	12.96
842.995	12.59
843.295	10.66
843.596	10.66
843.896	9.23
844.196	9.7
844.496	7.78
844.796	7.72
845.096	6.86
845.396	6.75
845.695	8.33
845.995	7.51
846.295	6.81
846.594	8.9
846.894	10.05
847.194	11.12
847.493	10.4
847.792	10.19
848.092	10.11
848.391	10.77
848.69	11.51
848.989	9.88
849.288	7.34
849.587	7.61
849.886	6.07
850.185	4.65
850.484	5.01
850.783	6.55
851.081	6.85
851.38	6.05
851.679	7.49
851.977	5.45
852.276	4.83
852.574	4.29
852.872	4.53
853.171	4.3
853.469	4.99
853.767	4.67
854.065	4.47
854.363	4.25
854.661	5.62
854.959	5.71
855.257	9.56
855.555	10.2
855.853	14.23
856.15	15.04
856.448	15.03
856.746	13.54
857.043	10.88
857.341	12.66
857.638	14.89
857.935	13.72
858.233	10.88
858.53	7.43
858.827	10.06
859.124	8.84
859.421	8.28
859.718	9.66
860.015	11.75
860.312	13.83
860.609	12.08
860.905	10.74
861.202	11.94
861.499	11.85
861.795	15.42
862.092	12.26
862.388	11.22
862.684	10.38
862.981	8.1
863.277	8.92
863.573	9.73
863.869	9
864.165	7.62
864.461	4.97
864.757	7.97
865.053	5.02
865.349	5.11
865.645	4.83
865.94	5.08
866.236	8.04
866.532	5.06
866.827	5.89
867.123	5.9
867.418	8.47
867.713	10.69
868.009	7.8
868.304	8.07
868.599	9.42
868.894	11.63
869.189	15.15
869.484	14.49
869.779	14.38
870.074	10.42
870.369	11.86
870.663	9.33
870.958	9.42
871.252	10.87
871.547	9.64
871.842	7.04
872.136	3.38
872.43	0.75
872.725	2.02
873.019	2.96
873.313	6.25
873.607	6.23
873.901	7.95
874.195	8.9
874.489	9.51
874.783	11.37
875.077	9.42
875.37	11.44
875.664	7.6
875.958	4.12
876.251	5.78
876.545	4.07
876.838	4.07
877.132	4.07
877.425	4.07
877.718	4.07
878.011	4.07
878.305	3.73
878.598	3.08
878.891	3.03
879.184	8.94
879.476	10.53
879.769	10.54
880.062	11.98
880.355	9.7
880.647	8.37
880.94	8.43
881.232	5.53
881.525	2.47
881.817	0.64
882.11	4.3
882.402	2.54
882.694	1.9
882.986	2.26
883.278	4.29
883.57	6.36
883.862	7.78
884.154	7.88
884.446	8.78
884.738	9.03
885.03	10.66
885.321	10.23
885.613	10.19
885.904	9.97
886.196	10.86
886.487	10.58
886.779	10.43
887.07	10.34
887.361	9.95
887.652	9.73
887.943	9.81
888.234	9.31
888.525	9.56
888.816	10.44
889.107	11.75
889.398	12.3
889.689	12.26
889.979	13.15
890.27	13.05
890.56	14.61
890.851	15.88
891.141	18.01
891.432	18.88
891.722	22.07
