Data from groin2_Reflection__2__12-20-16-608.txt Node

Date: Thu Aug 04 12:20:16 AEST 2022
User: kathy
Spectrometer: JAZA2503
Trigger mode: 0
Integration Time (sec): 2.883200E-1
Scans to average: 10
Electric dark correction enabled: true
Nonlinearity correction enabled: true
Boxcar width: 5
XAxis mode: Wavelengths
Number of Pixels in Spectrum: 2048
>>>>>Begin Spectral Data<<<<<
189.467	-36.69
189.852	-120.35
190.237	-4350.63
190.622	-161.35
191.007	5.77
191.392	40.77
191.777	374.53
192.162	-177.35
192.546	-203.92
192.931	-248.06
193.316	-220.8
193.701	7.81
194.086	38.81
194.47	86.52
194.855	22.27
195.24	-5139.07
195.624	-481.41
196.009	1439.25
196.393	665.15
196.778	-4497.09
197.163	-316.71
197.547	-137.59
197.931	-77.94
198.316	-45.87
198.7	-19.98
199.085	-8.44
199.469	8.81
199.853	14.34
200.237	22.64
200.622	22.22
201.006	22.64
201.39	17.53
201.774	18.35
202.158	21.95
202.542	22.54
202.926	15.98
203.31	10.72
203.694	1.71
204.078	-2.51
204.462	0.12
204.846	6.61
205.23	8.12
205.614	4.91
205.998	-3.43
206.381	-1.02
206.765	2.8
207.149	-1.32
207.532	6.34
207.916	4.86
208.3	6.32
208.683	3.47
209.067	-0.25
209.45	1.11
209.834	6.13
210.217	12.17
210.601	12.98
210.984	12.68
211.367	20.44
211.751	21.95
212.134	21.66
212.517	19.7
212.901	18.64
213.284	18.17
213.667	21.21
214.05	22.22
214.433	16.34
214.816	17.28
215.199	15.82
215.582	9.25
215.965	3.55
216.348	1.59
216.731	3.67
217.114	2.76
217.497	0.82
217.88	-5
218.262	-12.07
218.645	-5.29
219.028	-6.61
219.411	-5.87
219.793	-6.11
220.176	-2.14
220.559	0.32
220.941	-1.37
221.324	2.92
221.706	3.92
222.089	4.66
222.471	10.72
222.853	7.64
223.236	8.51
223.618	6.09
224	8.59
224.383	6.25
224.765	6.75
225.147	7.94
225.529	5.89
225.912	4.78
226.294	4.83
226.676	3.05
227.058	2.81
227.44	2.19
227.822	2.42
228.204	2.13
228.586	2.53
228.968	2.09
229.349	1.73
229.731	2.18
230.113	1.95
230.495	1.92
230.877	1.86
231.258	2
231.64	1.79
232.022	1.55
232.403	1.35
232.785	1.45
233.166	1.59
233.548	1.59
233.929	1.24
234.311	1.37
234.692	0.88
235.073	0.97
235.455	0.77
235.836	1.02
236.217	1.14
236.599	0.91
236.98	0.52
237.361	0.2
237.742	0.08
238.123	-0.08
238.504	0.12
238.885	0.21
239.266	0.24
239.647	0.37
240.028	0.44
240.409	0.46
240.79	0.8
241.171	0.91
241.552	0.96
241.933	1.02
242.313	1.12
242.694	1.07
243.075	1.28
243.456	1.2
243.836	1.35
244.217	1.32
244.597	1.29
244.978	1.16
245.358	1.11
245.739	1.12
246.119	1.03
246.5	0.99
246.88	0.96
247.26	0.84
247.641	0.81
248.021	0.81
248.401	0.77
248.781	0.8
249.162	0.9
249.542	0.95
249.922	0.96
250.302	1.04
250.682	1.02
251.062	1.03
251.442	0.98
251.822	1
252.202	0.83
252.582	0.8
252.961	0.91
253.341	0.83
253.721	0.82
254.101	0.71
254.48	0.81
254.86	0.66
255.24	0.72
255.619	0.96
255.999	0.75
256.378	0.77
256.758	0.88
257.137	0.74
257.517	0.76
257.896	0.72
258.276	0.76
258.655	0.71
259.034	0.72
259.414	0.68
259.793	0.6
260.172	0.71
260.551	0.68
260.93	0.65
261.309	0.64
261.688	0.61
262.068	0.64
262.447	0.63
262.825	0.54
263.204	0.58
263.583	0.57
263.962	0.57
264.341	0.59
264.72	0.64
265.099	0.56
265.477	0.6
265.856	0.54
266.235	0.47
266.613	0.52
266.992	0.54
267.371	0.53
267.749	0.64
268.128	0.6
268.506	0.6
268.884	0.59
269.263	0.64
269.641	0.59
270.02	0.54
270.398	0.55
270.776	0.58
271.154	0.58
271.533	0.56
271.911	0.45
272.289	0.43
272.667	0.45
273.045	0.4
273.423	0.42
273.801	0.41
274.179	0.48
274.557	0.46
274.935	0.46
275.313	0.46
275.69	0.47
276.068	0.5
276.446	0.53
276.824	0.55
277.201	0.57
277.579	0.55
277.957	0.56
278.334	0.52
278.712	0.5
279.089	0.4
279.467	0.47
279.844	0.47
280.222	0.44
280.599	0.44
280.976	0.38
281.354	0.32
281.731	0.35
282.108	0.41
282.485	0.39
282.863	0.44
283.24	0.46
283.617	0.43
283.994	0.44
284.371	0.49
284.748	0.51
285.125	0.52
285.502	0.59
285.879	0.55
286.256	0.55
286.633	0.61
287.009	0.6
287.386	0.63
287.763	0.67
288.139	0.71
288.516	0.74
288.893	0.76
289.269	0.77
289.646	0.83
290.022	0.87
290.399	0.86
290.775	0.86
291.152	0.9
291.528	0.89
291.904	0.88
292.281	0.85
292.657	0.82
293.033	0.85
293.41	0.87
293.786	0.87
294.162	0.89
294.538	0.95
294.914	1
295.29	1.01
295.666	1.08
296.042	1.09
296.418	1.15
296.794	1.2
297.17	1.21
297.546	1.27
297.921	1.3
298.297	1.33
298.673	1.34
299.048	1.38
299.424	1.42
299.8	1.45
300.175	1.53
300.551	1.58
300.926	1.64
301.302	1.69
301.677	1.72
302.053	1.8
302.428	1.83
302.803	1.87
303.179	1.92
303.554	1.96
303.929	2.02
304.304	2.03
304.68	2.05
305.055	2.11
305.43	2.15
305.805	2.19
306.18	2.19
306.555	2.24
306.93	2.28
307.305	2.31
307.679	2.33
308.054	2.31
308.429	2.32
308.804	2.35
309.179	2.35
309.553	2.37
309.928	2.4
310.303	2.44
310.677	2.47
311.052	2.51
311.426	2.51
311.801	2.55
312.175	2.57
312.55	2.64
312.924	2.65
313.298	2.66
313.673	2.7
314.047	2.69
314.421	2.7
314.795	2.74
315.17	2.75
315.544	2.79
315.918	2.82
316.292	2.89
316.666	2.94
317.04	3.02
317.414	3.1
317.788	3.14
318.162	3.24
318.535	3.34
318.909	3.42
319.283	3.47
319.657	3.54
320.03	3.64
320.404	3.75
320.778	3.9
321.151	4.18
321.525	4.42
321.898	4.73
322.272	5.06
322.645	5.39
323.019	5.74
323.392	6.11
323.765	6.6
324.139	7.02
324.512	7.53
324.885	7.97
325.258	8.35
325.632	8.7
326.005	9
326.378	9.19
326.751	9.35
327.124	9.49
327.497	9.54
327.87	9.5
328.243	9.48
328.616	9.5
328.988	9.52
329.361	9.5
329.734	9.51
330.107	9.55
330.479	9.52
330.852	9.46
331.225	9.41
331.597	9.3
331.97	9.19
332.342	9.03
332.715	8.91
333.087	8.8
333.46	8.7
333.832	8.65
334.204	8.65
334.577	8.6
334.949	8.59
335.321	8.53
335.693	8.47
336.065	8.36
336.438	8.25
336.81	8.16
337.182	8.1
337.554	8
337.926	7.9
338.298	7.82
338.669	7.68
339.041	7.63
339.413	7.55
339.785	7.48
340.157	7.41
340.528	7.35
340.9	7.27
341.272	7.17
341.643	7.13
342.015	7.14
342.386	7.2
342.758	7.28
343.129	7.32
343.501	7.42
343.872	7.45
344.243	7.47
344.615	7.46
344.986	7.44
345.357	7.45
345.728	7.46
346.099	7.41
346.471	7.38
346.842	7.32
347.213	7.29
347.584	7.21
347.955	7.2
348.326	7.16
348.697	7.1
349.067	7.07
349.438	7.02
349.809	7.05
350.18	7.14
350.55	7.17
350.921	7.22
351.292	7.26
351.662	7.29
352.033	7.31
352.403	7.34
352.774	7.4
353.144	7.42
353.515	7.41
353.885	7.4
354.255	7.34
354.626	7.34
354.996	7.34
355.366	7.31
355.736	7.29
356.107	7.26
356.477	7.23
356.847	7.19
357.217	7.19
357.587	7.22
357.957	7.21
358.327	7.23
358.697	7.25
359.066	7.24
359.436	7.27
359.806	7.29
360.176	7.35
360.546	7.37
360.915	7.39
361.285	7.38
361.654	7.36
362.024	7.37
362.393	7.37
362.763	7.36
363.132	7.37
363.502	7.37
363.871	7.38
364.24	7.38
364.61	7.4
364.979	7.42
365.348	7.45
365.717	7.49
366.087	7.51
366.456	7.54
366.825	7.57
367.194	7.61
367.563	7.63
367.932	7.65
368.301	7.67
368.669	7.68
369.038	7.7
369.407	7.73
369.776	7.73
370.145	7.78
370.513	7.81
370.882	7.82
371.25	7.84
371.619	7.9
371.988	7.92
372.356	7.95
372.724	8.01
373.093	8.07
373.461	8.11
373.83	8.14
374.198	8.17
374.566	8.2
374.934	8.23
375.303	8.24
375.671	8.24
376.039	8.27
376.407	8.33
376.775	8.35
377.143	8.38
377.511	8.41
377.879	8.45
378.247	8.51
378.615	8.54
378.982	8.63
379.35	8.7
379.718	8.78
380.086	8.84
380.453	8.87
380.821	8.9
381.188	8.95
381.556	8.99
381.923	9.03
382.291	9.04
382.658	9.08
383.026	9.12
383.393	9.14
383.76	9.16
384.128	9.19
384.495	9.22
384.862	9.25
385.229	9.27
385.596	9.34
385.963	9.38
386.33	9.41
386.697	9.44
387.064	9.46
387.431	9.48
387.798	9.51
388.165	9.55
388.532	9.59
388.899	9.6
389.265	9.63
389.632	9.63
389.999	9.65
390.365	9.68
390.732	9.7
391.098	9.69
391.465	9.71
391.831	9.72
392.198	9.73
392.564	9.76
392.93	9.79
393.297	9.8
393.663	9.82
394.029	9.83
394.395	9.84
394.762	9.87
395.128	9.92
395.494	9.95
395.86	9.98
396.226	10
396.592	10.02
396.958	10.03
397.323	10.05
397.689	10.08
398.055	10.11
398.421	10.13
398.787	10.13
399.152	10.14
399.518	10.14
399.883	10.17
400.249	10.18
400.615	10.19
400.98	10.2
401.345	10.2
401.711	10.19
402.076	10.2
402.442	10.19
402.807	10.18
403.172	10.17
403.537	10.17
403.902	10.15
404.268	10.15
404.633	10.14
404.998	10.13
405.363	10.13
405.728	10.12
406.093	10.13
406.457	10.13
406.822	10.16
407.187	10.19
407.552	10.21
407.917	10.23
408.281	10.24
408.646	10.27
409.011	10.29
409.375	10.32
409.74	10.34
410.104	10.35
410.469	10.35
410.833	10.34
411.197	10.33
411.562	10.33
411.926	10.33
412.29	10.33
412.655	10.31
413.019	10.3
413.383	10.29
413.747	10.31
414.111	10.34
414.475	10.37
414.839	10.37
415.203	10.4
415.567	10.41
415.931	10.43
416.295	10.45
416.658	10.45
417.022	10.45
417.386	10.46
417.749	10.46
418.113	10.45
418.477	10.46
418.84	10.47
419.204	10.47
419.567	10.47
419.931	10.46
420.294	10.46
420.657	10.5
421.021	10.52
421.384	10.54
421.747	10.54
422.11	10.56
422.473	10.56
422.836	10.57
423.199	10.58
423.562	10.6
423.925	10.6
424.288	10.59
424.651	10.6
425.014	10.59
425.377	10.59
425.74	10.59
426.102	10.59
426.465	10.62
426.828	10.63
427.19	10.64
427.553	10.64
427.916	10.66
428.278	10.67
428.641	10.64
429.003	10.63
429.365	10.61
429.728	10.63
430.09	10.6
430.452	10.57
430.814	10.54
431.177	10.51
431.539	10.5
431.901	10.48
432.263	10.51
432.625	10.54
432.987	10.56
433.349	10.6
433.711	10.63
434.072	10.66
434.434	10.68
434.796	10.72
435.158	10.79
435.519	10.84
435.881	10.87
436.243	10.87
436.604	10.87
436.966	10.89
437.327	10.89
437.689	10.87
438.05	10.85
438.411	10.87
438.773	10.88
439.134	10.89
439.495	10.89
439.856	10.89
440.218	10.89
440.579	10.92
440.94	10.94
441.301	10.97
441.662	11
442.023	11.04
442.384	11.04
442.745	11.06
443.105	11.04
443.466	11.04
443.827	11.06
444.188	11.06
444.548	11.06
444.909	11.07
445.269	11.05
445.63	11.05
445.99	11.04
446.351	11.06
446.711	11.04
447.072	11.05
447.432	11.06
447.792	11.08
448.153	11.08
448.513	11.07
448.873	11.07
449.233	11.09
449.593	11.08
449.953	11.08
450.313	11.08
450.673	11.08
451.033	11.07
451.393	11.05
451.753	11.02
452.113	11.55
452.472	11.51
452.832	11.49
453.192	11.45
453.551	11.42
453.911	11.38
454.271	11.33
454.63	11.29
454.989	11.27
455.349	11.27
455.708	11.27
456.068	10.99
456.427	11.01
456.786	11.01
457.145	11.02
457.505	11.04
457.864	11.07
458.223	11.12
458.582	11.18
458.941	11.22
459.3	11.25
459.659	11.28
460.018	11.29
460.376	11.29
460.735	11.29
461.094	11.3
461.453	11.3
461.811	11.29
462.17	11.28
462.529	11.26
462.887	11.24
463.246	11.23
463.604	11.23
463.963	11.24
464.321	11.35
464.679	11.36
465.038	11.37
465.396	11.38
465.754	11.41
466.112	11.41
466.47	11.44
466.828	11.46
467.186	11.48
467.544	11.5
467.902	11.51
468.26	11.39
468.618	11.4
468.976	11.41
469.334	11.42
469.692	11.41
470.049	11.43
470.407	11.41
470.765	11.38
471.122	11.38
471.48	11.38
471.837	11.39
472.195	11.4
472.552	11.43
472.909	11.45
473.267	11.47
473.624	11.49
473.981	11.5
474.338	11.52
474.696	11.55
475.053	11.57
475.41	11.58
475.767	11.59
476.124	11.62
476.481	11.63
476.838	11.62
477.194	11.64
477.551	11.66
477.908	11.66
478.265	11.68
478.621	11.7
478.978	11.71
479.335	11.73
479.691	11.75
480.048	11.77
480.404	11.78
480.761	11.81
481.117	11.82
481.473	11.83
481.83	11.84
482.186	11.86
482.542	11.85
482.898	11.88
483.255	11.89
483.611	11.9
483.967	11.92
484.323	11.95
484.679	11.97
485.035	11.97
485.39	11.99
485.746	12.01
486.102	12.01
486.458	12.02
486.814	12.02
487.169	12.05
487.525	12.05
487.88	12.05
488.236	12.06
488.591	12.06
488.947	12.07
489.302	12.06
489.658	12.07
490.013	12.09
490.368	12.11
490.723	12.11
491.079	12.1
491.434	12.11
491.789	12.1
492.144	12.11
492.499	12.11
492.854	12.1
493.209	12.11
493.564	12.14
493.919	12.16
494.273	12.18
494.628	12.18
494.983	12.17
495.338	12.16
495.692	12.17
496.047	12.15
496.401	12.16
496.756	12.17
497.11	12.15
497.465	12.11
497.819	12.09
498.173	12.06
498.528	12.06
498.882	12.06
499.236	12.08
499.59	12.1
499.944	12.13
500.298	12.13
500.652	12.15
501.006	12.18
501.36	12.19
501.714	12.19
502.068	12.2
502.422	12.2
502.776	12.2
503.129	12.21
503.483	12.21
503.837	12.22
504.19	12.24
504.544	12.24
504.897	12.23
505.251	12.22
505.604	12.21
505.958	12.2
506.311	12.19
506.664	12.16
507.017	12.12
507.371	12.09
507.724	12.04
508.077	12.01
508.43	11.97
508.783	11.95
509.136	11.94
509.489	11.93
509.842	11.92
510.195	11.91
510.547	11.91
510.9	11.9
511.253	11.88
511.606	11.85
511.958	11.81
512.311	11.78
512.663	11.74
513.016	11.7
513.368	11.66
513.721	11.63
514.073	11.6
514.425	11.58
514.778	11.56
515.13	11.55
515.482	11.54
515.834	11.53
516.186	11.52
516.538	11.53
516.89	11.54
517.242	11.57
517.594	11.57
517.946	11.59
518.298	11.6
518.65	11.61
519.001	11.6
519.353	11.59
519.705	11.59
520.056	11.58
520.408	11.54
520.759	11.51
521.111	11.45
521.462	11.43
521.814	11.39
522.165	11.35
522.516	11.31
522.868	11.3
523.219	11.27
523.57	11.22
523.921	11.21
524.272	11.22
524.623	11.19
524.974	11.18
525.325	11.14
525.676	11.11
526.027	11.09
526.378	11.06
526.728	11.03
527.079	11.01
527.43	11.01
527.78	10.97
528.131	10.91
528.481	10.89
528.832	10.86
529.182	10.84
529.533	10.82
529.883	10.8
530.233	10.77
530.584	10.74
530.934	10.72
531.284	10.69
531.634	10.65
531.984	10.65
532.334	10.61
532.684	10.59
533.034	10.58
533.384	10.56
533.734	10.57
534.084	10.55
534.434	10.54
534.783	10.53
535.133	10.51
535.483	10.52
535.832	10.51
536.182	10.51
536.531	10.51
536.881	10.48
537.23	10.47
537.58	10.42
537.929	10.39
538.278	11.45
538.628	11.4
538.977	11.37
539.326	11.34
539.675	11.3
540.024	11.26
540.373	11.21
540.722	11.17
541.071	11.14
541.42	11.12
541.769	11.1
542.117	10
542.466	9.96
542.815	9.94
543.163	9.91
543.512	9.91
543.861	9.92
544.209	9.91
544.558	9.91
544.906	9.9
545.254	9.87
545.603	9.88
545.951	9.89
546.299	9.92
546.647	9.96
546.996	9.96
547.344	9.93
547.692	9.89
548.04	9.89
548.388	9.87
548.736	9.87
549.083	9.85
549.431	9.8
549.779	9.76
550.127	9.71
550.475	9.64
550.822	9.62
551.17	9.57
551.517	9.57
551.865	9.53
552.212	9.53
552.56	9.52
552.907	9.49
553.254	9.49
553.602	9.47
553.949	9.43
554.296	9.4
554.643	9.36
554.99	9.38
555.337	9.34
555.684	9.32
556.031	9.27
556.378	9.22
556.725	9.22
557.072	9.19
557.419	9.2
557.765	9.19
558.112	9.17
558.459	9.15
558.805	9.15
559.152	9.12
559.498	9.1
559.845	9.06
560.191	9.04
560.538	9.01
560.884	8.97
561.23	8.93
561.576	8.88
561.923	8.82
562.269	8.79
562.615	8.73
562.961	8.71
563.307	8.71
563.653	8.71
563.999	8.66
564.344	8.63
564.69	8.65
565.036	8.64
565.382	8.64
565.727	8.66
566.073	8.65
566.419	8.64
566.764	8.6
567.11	8.56
567.455	8.55
567.8	8.57
568.146	8.53
568.491	8.49
568.836	8.45
569.181	8.42
569.527	8.37
569.872	8.34
570.217	8.29
570.562	8.26
570.907	8.22
571.252	8.2
571.597	8.19
571.941	8.17
572.286	8.16
572.631	8.14
572.976	8.14
573.32	8.12
573.665	8.1
574.009	8.08
574.354	8.08
574.698	8.08
575.043	8.08
575.387	8.07
575.731	8.06
576.076	8.06
576.42	8.06
576.764	8.05
577.108	8.05
577.452	8.02
577.796	8
578.14	7.96
578.484	7.94
578.828	7.94
579.172	7.94
579.516	7.9
579.86	7.87
580.203	7.85
580.547	7.84
580.891	7.83
581.234	7.82
581.578	7.82
581.921	7.82
582.264	7.81
582.608	7.78
582.951	7.78
583.294	7.77
583.638	7.77
583.981	7.77
584.324	7.77
584.667	7.77
585.01	7.77
585.353	7.76
585.696	7.76
586.039	7.76
586.382	7.74
586.725	7.71
587.067	7.71
587.41	7.7
587.753	7.7
588.095	7.69
588.438	7.68
588.781	7.67
589.123	7.66
589.465	7.65
589.808	7.65
590.15	7.65
590.492	7.64
590.835	7.62
591.177	7.6
591.519	7.55
591.861	7.54
592.203	7.52
592.545	7.52
592.887	7.51
593.229	7.49
593.571	7.48
593.913	7.47
594.254	7.46
594.596	7.46
594.938	7.46
595.279	7.47
595.621	7.48
595.963	7.49
596.304	7.49
596.645	7.49
596.987	7.47
597.328	7.44
597.669	7.43
598.011	7.45
598.352	7.45
598.693	7.45
599.034	7.46
599.375	7.46
599.716	7.47
600.057	7.46
600.398	7.45
600.739	7.45
601.08	7.45
601.42	7.42
601.761	7.41
602.102	7.4
602.442	7.4
602.783	7.39
603.123	7.37
603.464	7.36
603.804	7.34
604.145	7.32
604.485	7.29
604.825	7.27
605.166	7.26
605.506	7.26
605.846	7.23
606.186	7.24
606.526	7.26
606.866	7.24
607.206	7.22
607.546	7.22
607.886	7.22
608.225	7.21
608.565	7.19
608.905	7.19
609.245	7.22
609.584	7.21
609.924	7.17
610.263	7.17
610.603	7.15
610.942	7.14
611.281	7.14
611.621	7.14
611.96	7.13
612.299	7.13
612.638	7.14
612.978	7.13
613.317	7.12
613.656	7.11
613.995	7.07
614.334	7.04
614.672	7.02
615.011	6.99
615.35	6.99
615.689	6.97
616.027	6.96
616.366	6.91
616.705	6.89
617.043	6.9
617.382	6.9
617.72	6.88
618.059	6.86
618.397	6.85
618.735	6.84
619.073	6.83
619.412	6.82
619.75	6.79
620.088	6.77
620.426	6.77
620.764	6.77
621.102	6.75
621.44	6.73
621.778	6.73
622.115	6.73
622.453	6.74
622.791	6.74
623.129	6.75
623.466	6.76
623.804	6.76
624.141	6.75
624.479	6.74
624.816	6.72
625.153	6.72
625.491	6.71
625.828	6.7
626.165	6.69
626.502	6.68
626.84	6.67
627.177	6.68
627.514	6.65
627.851	6.66
628.188	6.59
628.524	6.55
628.861	6.52
629.198	6.5
629.535	6.49
629.871	6.44
630.208	6.43
630.545	6.44
630.881	6.45
631.218	6.47
631.554	6.44
631.89	6.46
632.227	6.44
632.563	6.45
632.899	6.46
633.235	6.45
633.572	6.44
633.908	6.42
634.244	6.42
634.58	6.33
634.916	6.34
635.251	6.38
635.587	6.39
635.923	6.4
636.259	6.37
636.595	6.36
636.93	6.38
637.266	6.4
637.601	6.37
637.937	6.32
638.272	6.39
638.608	6.35
638.943	6.29
639.278	6.27
639.613	6.22
639.949	6.19
640.284	6.19
640.619	6.17
640.954	6.15
641.289	6.15
641.624	6.17
641.959	6.1
642.294	6.02
642.628	6.01
642.963	6
643.298	5.97
643.632	6.06
643.967	6.03
644.302	5.96
644.636	5.98
644.971	5.95
645.305	5.95
645.639	5.95
645.974	5.97
646.308	5.94
646.642	5.88
646.976	5.94
647.31	5.83
647.644	5.79
647.978	5.78
648.312	5.71
648.646	5.69
648.98	5.66
649.314	5.64
649.647	5.65
649.981	5.61
650.315	5.6
650.648	5.53
650.982	5.5
651.315	5.53
651.649	5.56
651.982	5.56
652.316	5.53
652.649	5.5
652.982	5.5
653.315	5.51
653.648	5.58
653.982	5.6
654.315	5.6
654.648	5.63
654.981	5.62
655.313	5.63
655.646	5.66
655.979	5.72
656.312	5.69
656.644	5.71
656.977	5.67
657.31	5.63
657.642	5.6
657.975	5.6
658.307	5.56
658.64	5.56
658.972	5.55
659.304	5.51
659.636	5.44
659.969	5.45
660.301	5.46
660.633	5.46
660.965	5.41
661.297	5.42
661.629	5.45
661.961	5.44
662.292	5.4
662.624	5.41
662.956	5.45
663.288	5.51
663.619	5.53
663.951	5.5
664.282	5.48
664.614	5.51
664.945	5.47
665.276	5.4
665.608	5.38
665.939	5.38
666.27	5.29
666.601	5.23
666.933	5.16
667.264	5.1
667.595	5.11
667.926	5.15
668.256	5.1
668.587	5.04
668.918	5.02
669.249	4.99
669.58	4.94
669.91	4.92
670.241	4.93
670.571	4.94
670.902	4.99
671.232	4.88
671.563	4.83
671.893	4.84
672.223	4.91
672.554	4.98
672.884	5.04
673.214	5.05
673.544	5.16
673.874	5.09
674.204	5.14
674.534	5.03
674.864	5.06
675.194	5.03
675.524	5.14
675.853	5.12
676.183	5.04
676.513	5.01
676.842	5.05
677.172	4.95
677.501	5.02
677.831	4.95
678.16	5.04
678.489	5.06
678.819	5.12
679.148	4.97
679.477	4.95
679.806	4.94
680.135	4.86
680.464	4.81
680.793	4.81
681.122	4.77
681.451	4.73
681.78	4.68
682.108	4.65
682.437	4.6
682.766	4.62
683.094	4.64
683.423	4.59
683.751	4.6
684.08	4.51
684.408	4.43
684.737	4.45
685.065	4.45
685.393	4.43
685.721	4.45
686.049	4.41
686.377	4.43
686.705	4.37
687.033	4.45
687.361	4.56
687.689	4.68
688.017	4.79
688.345	4.84
688.673	4.85
689.0	4.86
689.328	4.83
689.655	4.89
689.983	4.9
690.31	4.94
690.638	4.84
690.965	4.73
691.292	4.6
691.62	4.58
691.947	4.46
692.274	4.49
692.601	4.45
692.928	4.46
693.255	4.4
693.582	4.35
693.909	4.35
694.236	4.46
694.562	4.45
694.889	4.48
695.216	4.48
695.542	4.52
695.869	4.47
696.196	4.47
696.522	4.52
696.848	4.56
697.175	4.54
697.501	4.58
697.827	4.55
698.154	4.67
698.48	4.64
698.806	4.61
699.132	4.57
699.458	4.62
699.784	4.65
700.11	4.6
700.435	4.6
700.761	4.61
701.087	4.53
701.413	4.55
701.738	4.42
702.064	4.51
702.389	4.49
702.715	4.51
703.04	4.48
703.366	4.45
703.691	4.52
704.016	4.48
704.341	4.47
704.666	4.46
704.992	4.36
705.317	4.41
705.642	4.32
705.967	4.27
706.291	4.26
706.616	4.4
706.941	4.42
707.266	4.38
707.59	4.42
707.915	4.49
708.24	4.49
708.564	4.55
708.889	4.56
709.213	4.66
709.537	4.62
709.862	4.43
710.186	4.17
710.51	4.13
710.834	4.16
711.158	4.18
711.482	4.11
711.806	4.23
712.13	4.2
712.454	4.18
712.778	4.23
713.102	4.31
713.426	4.46
713.749	4.6
714.073	4.7
714.396	4.55
714.72	4.49
715.043	4.52
715.367	4.47
715.69	4.5
716.013	4.55
716.337	4.45
716.66	4.43
716.983	4.55
717.306	4.38
717.629	4.17
717.952	4.23
718.275	4.18
718.598	4.08
718.921	3.95
719.243	4.13
719.566	4.17
719.889	4.25
720.211	4.27
720.534	4.11
720.856	4.25
721.179	4.51
721.501	4.54
721.823	4.55
722.146	4.58
722.468	4.8
722.79	4.56
723.112	4.41
723.434	4.38
723.756	4.39
724.078	4.42
724.4	4.29
724.722	4.17
725.044	4
725.366	3.87
725.687	3.89
726.009	3.85
726.33	3.78
726.652	3.91
726.973	3.76
727.295	3.73
727.616	3.6
727.938	3.76
728.259	3.85
728.58	3.96
728.901	4.11
729.222	4.12
729.543	4.04
729.864	4.09
730.185	3.89
730.506	4
730.827	3.97
731.148	4.17
731.468	4.04
731.789	4.01
732.11	4
732.43	3.85
732.751	3.94
733.071	3.88
733.392	3.79
733.712	3.95
734.032	3.93
734.352	3.96
734.673	3.82
734.993	3.78
735.313	3.61
735.633	4.06
735.953	4.31
736.273	4.2
736.593	4.4
736.912	4.46
737.232	4.29
737.552	4.26
737.871	4.15
738.191	4.26
738.51	4.45
738.83	4.73
739.149	4.44
739.469	4.49
739.788	4.49
740.107	4.28
740.426	4.43
740.746	4.54
741.065	4.56
741.384	4.68
741.703	4.63
742.022	4.67
742.341	4.61
742.659	4.48
742.978	4.28
743.297	4.36
743.615	4.31
743.934	4.13
744.253	3.9
744.571	3.91
744.89	4.07
745.208	4.13
745.526	4.08
745.845	3.76
746.163	3.61
746.481	3.85
746.799	3.65
747.117	3.8
747.435	4.08
747.753	4.46
748.071	4.52
748.389	4.6
748.706	4.52
749.024	4.38
749.342	4.96
749.659	5.25
749.977	4.84
750.295	5.14
750.612	5.24
750.929	4.92
751.247	4.96
751.564	4.87
751.881	4.62
752.198	4.87
752.516	4.95
752.833	4.57
753.15	4.33
753.467	4.27
753.783	4.02
754.1	4
754.417	4.15
754.734	3.99
755.05	4.25
755.367	4.12
755.684	3.83
756.0	3.92
756.317	3.79
756.633	3.84
756.949	4.13
757.266	4.22
757.582	4.08
757.898	3.74
758.214	3.64
758.53	3.4
758.846	3.37
759.162	3.2
759.478	2.89
759.794	3.13
760.11	3.03
760.426	2.99
760.741	2.99
761.057	2.97
761.372	2.98
761.688	2.92
762.003	3.09
762.319	3.36
762.634	3.57
762.949	3.67
763.265	3.74
763.58	3.79
763.895	3.74
764.21	3.78
764.525	3.67
764.84	3.78
765.155	4.13
765.47	4.05
765.785	4.06
766.099	4.26
766.414	4.35
766.729	4.11
767.043	4.39
767.358	4.43
767.672	4.12
767.987	4.14
768.301	4.24
768.615	3.96
768.929	3.68
769.244	3.48
769.558	3.45
769.872	3.33
770.186	3.3
770.5	2.97
770.814	2.7
771.127	2.8
771.441	2.77
771.755	3.06
772.069	2.84
772.382	2.81
772.696	3.07
773.009	3.04
773.323	3.33
773.636	3.42
773.95	3.46
774.263	3.94
774.576	3.78
774.889	4.27
775.202	3.65
775.515	4.13
775.828	4.04
776.141	4.02
776.454	3.69
776.767	3.27
777.08	3.18
777.393	3.02
777.705	2.56
778.018	2.62
778.33	2.18
778.643	2.6
778.955	2.19
779.268	2.69
779.58	2.57
779.892	2.75
780.205	2.82
780.517	2.99
780.829	3.4
781.141	3.89
781.453	3.72
781.765	4.1
782.077	3.84
782.388	4.14
782.7	3.77
783.012	4.28
783.324	4.23
783.635	4.34
783.947	4.8
784.258	4.09
784.57	3.95
784.881	4.49
785.192	4.05
785.504	4.37
785.815	4.15
786.126	4.38
786.437	4.43
786.748	4.07
787.059	3.67
787.37	2.83
787.681	3.07
787.992	2.77
788.302	2.75
788.613	3.3
788.924	3.1
789.234	3.24
789.545	3.65
789.855	3.43
790.166	3.56
790.476	3.91
790.786	4.11
791.096	4.35
791.407	5.1
791.717	5.02
792.027	5.02
792.337	4.69
792.647	4.7
792.957	4.5
793.266	4.01
793.576	4.13
793.886	3.57
794.196	3.72
794.505	7.83
794.815	7.2
795.124	7.22
795.434	7.18
795.743	6.97
796.052	6.95
796.362	6.69
796.671	6.45
796.98	6.7
797.289	7.3
797.598	7.23
797.907	3.01
798.216	3.34
798.525	3.83
798.834	3.71
799.142	4.22
799.451	4.27
799.76	4.54
800.068	4.95
800.377	5.27
800.685	5.96
800.994	6.15
801.302	6.38
801.61	6.8
801.918	6.18
802.227	5.98
802.535	5.99
802.843	6.01
803.151	5.88
803.459	5.9
803.767	5.45
804.074	4.43
804.382	4.24
804.69	5.49
804.998	4.77
805.305	5.16
805.613	5.21
805.92	5.44
806.228	5.55
806.535	4.65
806.842	4.91
807.15	4.94
807.457	5.22
807.764	5.09
808.071	3.98
808.378	4.01
808.685	3.93
808.992	3.73
809.299	3.66
809.605	3.51
809.912	4.55
810.219	4.15
810.525	4.44
810.832	4.28
811.138	4.61
811.445	4.41
811.751	4.18
812.058	3.73
812.364	4.02
812.67	4.24
812.976	3.88
813.282	3.67
813.588	3.92
813.894	3.81
814.2	3.56
814.506	3.54
814.812	3.18
815.118	3.36
815.423	3.56
815.729	3.66
816.035	3.2
816.34	3.58
816.646	4.75
816.951	5.04
817.256	4.56
817.562	5.06
817.867	4.95
818.172	5.34
818.477	5.23
818.782	5.09
819.087	5.64
819.392	5.59
819.697	5.39
820.002	3.88
820.306	3.2
820.611	3.3
820.916	3.26
821.22	3.09
821.525	2.93
821.829	3.39
822.134	3.53
822.438	3.25
822.742	3.21
823.047	3.16
823.351	3.2
823.655	3.4
823.959	3.19
824.263	3.25
824.567	3.36
824.871	3.44
825.174	3.34
825.478	4.79
825.782	4.97
826.086	5.13
826.389	5.35
826.693	5.71
826.996	5.79
827.3	6.09
827.603	6.06
827.906	6.17
828.209	6.49
828.513	6.73
828.816	4.98
829.119	5.02
829.422	5.13
829.725	5.05
830.028	4.82
830.33	4.54
830.633	4.58
830.936	4.73
831.238	4.46
831.541	3.98
831.844	3.67
832.146	3.71
832.448	3.57
832.751	3.48
833.053	3.67
833.355	4.13
833.657	3.47
833.96	3.21
834.262	3.42
834.564	3.77
834.865	3.58
835.167	5.06
835.469	4.89
835.771	4.7
836.073	4.32
836.374	4.3
836.676	4.08
836.977	4.95
837.279	5.29
837.58	5.33
837.882	5.45
838.183	5.54
838.484	3.37
838.785	3.66
839.086	4.01
839.387	4.19
839.688	3.98
839.989	3.79
840.29	4.09
840.591	4.54
840.892	3.68
841.192	4.02
841.493	3.96
841.794	4.94
842.094	5.3
842.394	4.74
842.695	4.74
842.995	4.74
843.295	4.74
843.596	4.74
843.896	4.74
844.196	4.74
844.496	4.74
844.796	4.74
845.096	4.74
845.396	4.74
845.695	4.74
845.995	3.99
846.295	7.31
846.594	8
846.894	8.36
847.194	6.94
847.493	7.41
847.792	8.23
848.092	7.41
848.391	5.45
848.69	8.04
848.989	8.02
849.288	6.21
849.587	3.7
849.886	2.65
850.185	1.68
850.484	4.23
850.783	4.66
851.081	4.33
851.38	5.34
851.679	7.01
851.977	4.79
852.276	6.17
852.574	7.83
852.872	8.57
853.171	7.32
853.469	7.75
853.767	7.29
854.065	6.42
854.363	5.07
854.661	6.48
854.959	4.96
855.257	2.8
855.555	0.4
855.853	0.4
856.15	0.4
856.448	0.86
856.746	0.52
857.043	0.52
857.341	3.7
857.638	8.78
857.935	6.53
858.233	6.19
858.53	7.9
858.827	9.77
859.124	9.05
859.421	8.97
859.718	10.59
860.015	12.17
860.312	12.62
860.609	8.88
860.905	4.66
861.202	4.61
861.499	6.92
861.795	7.36
862.092	6.59
862.388	6.11
862.684	7.56
862.981	7.43
863.277	3.94
863.573	4.15
863.869	4.84
864.165	5.71
864.461	7.38
864.757	5.1
865.053	5.03
865.349	4.97
865.645	5.35
865.94	3.51
866.236	0.56
866.532	4.46
866.827	4.15
867.123	3.69
867.418	2.4
867.713	2.4
868.009	2.4
868.304	2.4
868.599	2.4
868.894	0.09
869.189	1.17
869.484	4.21
869.779	3.41
870.074	5
870.369	6.11
870.663	7.53
870.958	6.18
871.252	7.71
871.547	8
871.842	6.99
872.136	3.41
872.43	2.78
872.725	2.65
873.019	2.73
873.313	3.22
873.607	0.88
873.901	0.88
874.195	4.42
874.489	5.78
874.783	4.63
875.077	3.09
875.37	9.21
875.664	10.45
875.958	13
876.251	12.58
876.545	13.17
876.838	12.74
877.132	15.79
877.425	13.66
877.718	12.61
878.011	13.06
878.305	14.62
878.598	10.35
878.891	8.6
879.184	3.74
879.476	5.6
879.769	3.19
880.062	3.28
880.355	3.28
880.647	2.14
880.94	1.5
881.232	0.38
881.525	0.38
881.817	0.38
882.11	0
882.402	1.33
882.694	1.33
882.986	0.7
883.278	2.01
883.57	3.51
883.862	2.96
884.154	3.41
884.446	3.77
884.738	4.12
885.03	5.01
885.321	5.5
885.613	5.94
885.904	6.5
886.196	6.34
886.487	6.37
886.779	5.62
887.07	5.51
887.361	5.17
887.652	5.86
887.943	5.24
888.234	5.04
888.525	3.95
888.816	3.09
889.107	2.84
889.398	3.41
889.689	3.15
889.979	3.17
890.27	3.43
890.56	4.69
890.851	3.66
891.141	4.98
891.432	5.65
891.722	7.97
