Data from groin3_Reflection__1__15-19-43-625.txt Node

Date: Thu Aug 04 15:19:43 AEST 2022
User: kathy
Spectrometer: JAZA2503
Trigger mode: 0
Integration Time (sec): 2.439700E-1
Scans to average: 10
Electric dark correction enabled: true
Nonlinearity correction enabled: true
Boxcar width: 5
XAxis mode: Wavelengths
Number of Pixels in Spectrum: 2048
>>>>>Begin Spectral Data<<<<<
189.467	-669.14
189.852	-376.33
190.237	-295.88
190.622	-275.95
191.007	-429.51
191.392	-178.94
191.777	-103.36
192.162	-67.95
192.546	34.32
192.931	364.21
193.316	-19.43
193.701	-534.2
194.086	-255.58
194.47	-74.74
194.855	2454.18
195.24	778.95
195.624	-101.13
196.009	26.18
196.393	177.37
196.778	611.63
197.163	280.5
197.547	176.38
197.931	163.72
198.316	118.34
198.7	105.93
199.085	94.2
199.469	83.85
199.853	66.8
200.237	46.03
200.622	34.58
201.006	31.67
201.39	25.2
201.774	21.85
202.158	19.14
202.542	17.57
202.926	6.12
203.31	-7.03
203.694	-6.67
204.078	2.73
204.462	19.81
204.846	21.66
205.23	21.4
205.614	21.37
205.998	22.69
206.381	27.39
206.765	26.26
207.149	26.26
207.532	28.38
207.916	25.95
208.3	26.94
208.683	29.23
209.067	28.59
209.45	20.59
209.834	20.84
210.217	18.98
210.601	15.49
210.984	22.12
211.367	27.17
211.751	23.74
212.134	23.8
212.517	26.23
212.901	19.48
213.284	21.58
213.667	25.29
214.05	23.84
214.433	19.3
214.816	16.13
215.199	14.02
215.582	12.17
215.965	10.84
216.348	11.58
216.731	6.94
217.114	2.58
217.497	2.21
217.88	-0.71
218.262	-3.25
218.645	3.05
219.028	8.37
219.411	8.29
219.793	12.68
220.176	12.5
220.559	14.71
220.941	17.58
221.324	21.55
221.706	22.46
222.089	27.39
222.471	25.81
222.853	21.68
223.236	20
223.618	16.49
224	13.13
224.383	11.04
224.765	7.72
225.147	4.68
225.529	3.28
225.912	1.47
226.294	-2.57
226.676	-1.61
227.058	-1.82
227.44	-1.81
227.822	-1
228.204	0.37
228.586	0.66
228.968	0.83
229.349	1.27
229.731	1.43
230.113	1.01
230.495	1.28
230.877	1.46
231.258	2.35
231.64	2.33
232.022	2.14
232.403	1.87
232.785	1.81
233.166	1.63
233.548	1.17
233.929	0.83
234.311	1.63
234.692	2.36
235.073	2.29
235.455	2.4
235.836	2.9
236.217	2.98
236.599	2.64
236.98	2.96
237.361	3.24
237.742	3.52
238.123	3.38
238.504	2.9
238.885	2.08
239.266	1.78
239.647	0.96
240.028	0.98
240.409	1.3
240.79	1.56
241.171	1.49
241.552	1.36
241.933	1.38
242.313	1.72
242.694	1.82
243.075	2.04
243.456	2.08
243.836	2.18
244.217	2.29
244.597	2.11
244.978	2.05
245.358	2.19
245.739	2.24
246.119	2.16
246.5	2.05
246.88	1.97
247.26	1.87
247.641	1.83
248.021	1.85
248.401	1.6
248.781	1.72
249.162	1.77
249.542	1.63
249.922	1.53
250.302	1.74
250.682	1.63
251.062	1.59
251.442	1.52
251.822	1.54
252.202	1.66
252.582	1.76
252.961	1.81
253.341	1.65
253.721	1.7
254.101	1.71
254.48	1.31
254.86	1.38
255.24	1.45
255.619	1.43
255.999	1.44
256.378	1.12
256.758	1.25
257.137	1.03
257.517	0.99
257.896	0.97
258.276	0.92
258.655	0.9
259.034	0.73
259.414	0.67
259.793	0.66
260.172	0.6
260.551	0.68
260.93	0.55
261.309	0.55
261.688	0.56
262.068	0.59
262.447	0.65
262.825	0.67
263.204	0.75
263.583	0.84
263.962	0.9
264.341	1.05
264.72	0.99
265.099	1.21
265.477	1.31
265.856	1.24
266.235	1.22
266.613	1.2
266.992	1.18
267.371	1.17
267.749	1.15
268.128	1.03
268.506	0.94
268.884	1.1
269.263	0.96
269.641	0.81
270.02	0.84
270.398	0.8
270.776	0.77
271.154	0.82
271.533	0.92
271.911	0.89
272.289	0.92
272.667	0.88
273.045	0.82
273.423	0.83
273.801	0.88
274.179	0.84
274.557	0.91
274.935	0.92
275.313	0.9
275.69	0.88
276.068	0.91
276.446	0.97
276.824	0.91
277.201	0.89
277.579	0.86
277.957	0.82
278.334	0.8
278.712	0.71
279.089	0.67
279.467	0.66
279.844	0.6
280.222	0.47
280.599	0.41
280.976	0.55
281.354	0.5
281.731	0.5
282.108	0.61
282.485	0.7
282.863	0.76
283.24	0.8
283.617	0.85
283.994	0.89
284.371	0.93
284.748	0.96
285.125	0.91
285.502	0.95
285.879	0.98
286.256	0.95
286.633	0.94
287.009	1
287.386	0.99
287.763	0.99
288.139	0.93
288.516	0.99
288.893	1.04
289.269	1.09
289.646	1.15
290.022	1.16
290.399	1.18
290.775	1.18
291.152	1.21
291.528	1.23
291.904	1.19
292.281	1.27
292.657	1.27
293.033	1.25
293.41	1.29
293.786	1.3
294.162	1.36
294.538	1.36
294.914	1.44
295.29	1.46
295.666	1.52
296.042	1.61
296.418	1.67
296.794	1.72
297.17	1.82
297.546	1.87
297.921	1.93
298.297	1.98
298.673	2.05
299.048	2.09
299.424	2.17
299.8	2.22
300.175	2.29
300.551	2.35
300.926	2.41
301.302	2.44
301.677	2.47
302.053	2.55
302.428	2.63
302.803	2.68
303.179	2.77
303.554	2.78
303.929	2.87
304.304	2.95
304.68	3.02
305.055	3.15
305.43	3.24
305.805	3.35
306.18	3.35
306.555	3.43
306.93	3.53
307.305	3.56
307.679	3.62
308.054	3.63
308.429	3.63
308.804	3.61
309.179	3.6
309.553	3.59
309.928	3.6
310.303	3.64
310.677	3.65
311.052	3.63
311.426	3.68
311.801	3.73
312.175	3.77
312.55	3.86
312.924	3.92
313.298	4
313.673	4.08
314.047	4.13
314.421	4.19
314.795	4.25
315.17	4.32
315.544	4.34
315.918	4.39
316.292	4.47
316.666	4.55
317.04	4.66
317.414	4.7
317.788	4.82
318.162	4.97
318.535	5.11
318.909	5.25
319.283	5.43
319.657	5.6
320.03	5.76
320.404	5.9
320.778	6.2
321.151	6.54
321.525	6.84
321.898	7.24
322.272	7.61
322.645	8.13
323.019	8.63
323.392	9.26
323.765	9.98
324.139	10.6
324.512	11.36
324.885	12.07
325.258	12.72
325.632	13.23
326.005	13.61
326.378	13.95
326.751	14.21
327.124	14.38
327.497	14.49
327.87	14.62
328.243	14.68
328.616	14.77
328.988	14.84
329.361	14.85
329.734	14.84
330.107	14.82
330.479	14.72
330.852	14.55
331.225	14.44
331.597	14.31
331.97	14.15
332.342	13.99
332.715	13.9
333.087	13.76
333.46	13.63
333.832	13.52
334.204	13.54
334.577	13.47
334.949	13.45
335.321	13.4
335.693	13.28
336.065	13.14
336.438	12.93
336.81	12.72
337.182	12.56
337.554	12.37
337.926	12.24
338.298	12.11
338.669	12
339.041	11.86
339.413	11.74
339.785	11.62
340.157	11.46
340.528	11.36
340.9	11.25
341.272	11.16
341.643	11.13
342.015	11.16
342.386	11.21
342.758	11.31
343.129	11.4
343.501	11.43
343.872	11.43
344.243	11.44
344.615	11.43
344.986	11.4
345.357	11.39
345.728	11.35
346.099	11.34
346.471	11.26
346.842	11.2
347.213	11.13
347.584	11.12
347.955	11.13
348.326	11.07
348.697	10.96
349.067	10.93
349.438	10.92
349.809	10.9
350.18	10.92
350.55	10.93
350.921	10.99
351.292	11.06
351.662	11.11
352.033	11.12
352.403	11.12
352.774	11.12
353.144	11.14
353.515	11.17
353.885	11.18
354.255	11.15
354.626	11.13
354.996	11.1
355.366	11.04
355.736	10.99
356.107	10.95
356.477	10.93
356.847	10.92
357.217	10.87
357.587	10.86
357.957	10.86
358.327	10.87
358.697	10.88
359.066	10.89
359.436	10.91
359.806	10.9
360.176	10.96
360.546	10.99
360.915	11
361.285	11.02
361.654	11
362.024	10.98
362.393	10.98
362.763	10.97
363.132	10.96
363.502	10.93
363.871	10.94
364.24	10.91
364.61	10.9
364.979	10.88
365.348	10.89
365.717	10.92
366.087	10.95
366.456	10.96
366.825	10.95
367.194	10.96
367.563	10.98
367.932	11
368.301	11.03
368.669	11.05
369.038	11.07
369.407	11.09
369.776	11.1
370.145	11.08
370.513	11.1
370.882	11.13
371.25	11.15
371.619	11.17
371.988	11.17
372.356	11.18
372.724	11.18
373.093	11.2
373.461	11.16
373.83	11.17
374.198	11.19
374.566	11.18
374.934	11.19
375.303	11.21
375.671	11.22
376.039	11.23
376.407	11.22
376.775	11.23
377.143	11.25
377.511	11.28
377.879	11.29
378.247	11.3
378.615	11.33
378.982	11.34
379.35	11.33
379.718	11.34
380.086	11.37
380.453	11.4
380.821	11.42
381.188	11.43
381.556	11.46
381.923	11.46
382.291	11.48
382.658	11.49
383.026	11.53
383.393	11.57
383.76	11.61
384.128	11.61
384.495	11.63
384.862	11.64
385.229	11.65
385.596	11.63
385.963	11.67
386.33	11.67
386.697	11.67
387.064	11.63
387.431	11.59
387.798	11.57
388.165	11.58
388.532	11.58
388.899	11.56
389.265	11.58
389.632	11.6
389.999	11.57
390.365	11.56
390.732	11.57
391.098	11.58
391.465	11.61
391.831	11.61
392.198	11.59
392.564	11.6
392.93	11.61
393.297	11.61
393.663	11.62
394.029	11.65
394.395	11.67
394.762	11.71
395.128	11.73
395.494	11.75
395.86	11.8
396.226	11.83
396.592	11.86
396.958	11.88
397.323	11.9
397.689	11.93
398.055	11.97
398.421	11.98
398.787	12
399.152	12.01
399.518	12.03
399.883	12.04
400.249	12.09
400.615	12.07
400.98	12.11
401.345	12.12
401.711	12.13
402.076	12.12
402.442	12.13
402.807	12.14
403.172	12.15
403.537	12.16
403.902	12.15
404.268	12.13
404.633	12.15
404.998	12.14
405.363	12.15
405.728	12.17
406.093	12.19
406.457	12.2
406.822	12.17
407.187	12.19
407.552	12.22
407.917	12.23
408.281	12.25
408.646	12.28
409.011	12.3
409.375	12.34
409.74	12.31
410.104	12.32
410.469	12.33
410.833	12.37
411.197	12.36
411.562	12.36
411.926	12.36
412.29	12.38
412.655	12.38
413.019	12.39
413.383	12.38
413.747	12.42
414.111	12.43
414.475	12.45
414.839	12.48
415.203	12.52
415.567	12.54
415.931	12.59
416.295	12.6
416.658	12.61
417.022	12.62
417.386	12.63
417.749	12.63
418.113	12.64
418.477	12.64
418.84	12.63
419.204	12.62
419.567	12.63
419.931	12.61
420.294	12.62
420.657	12.65
421.021	12.68
421.384	12.71
421.747	12.75
422.11	12.78
422.473	12.8
422.836	12.83
423.199	12.87
423.562	12.9
423.925	12.92
424.288	12.94
424.651	12.93
425.014	12.97
425.377	12.97
425.74	12.96
426.102	12.95
426.465	12.98
426.828	12.99
427.19	13.01
427.553	13
427.916	13
428.278	13
428.641	13
429.003	12.99
429.365	12.98
429.728	12.98
430.09	12.98
430.452	12.98
430.814	12.96
431.177	12.94
431.539	12.94
431.901	12.96
432.263	12.97
432.625	12.98
432.987	12.97
433.349	12.99
433.711	13
434.072	13.05
434.434	13.06
434.796	13.09
435.158	13.13
435.519	13.19
435.881	13.22
436.243	13.24
436.604	13.25
436.966	13.26
437.327	13.29
437.689	13.31
438.05	13.29
438.411	13.3
438.773	13.31
439.134	13.32
439.495	13.29
439.856	13.29
440.218	13.3
440.579	13.3
440.94	13.31
441.301	13.33
441.662	13.34
442.023	13.36
442.384	13.38
442.745	13.37
443.105	13.38
443.466	13.42
443.827	13.42
444.188	13.42
444.548	13.44
444.909	13.42
445.269	13.41
445.63	13.39
445.99	13.39
446.351	13.38
446.711	13.41
447.072	13.41
447.432	13.38
447.792	13.37
448.153	13.38
448.513	13.35
448.873	13.37
449.233	13.37
449.593	13.36
449.953	13.37
450.313	13.36
450.673	13.35
451.033	13.35
451.393	13.35
451.753	13.36
452.113	13.69
452.472	13.72
452.832	13.68
453.192	13.63
453.551	13.61
453.911	13.57
454.271	13.51
454.63	13.48
454.989	13.46
455.349	13.44
455.708	13.43
456.068	13.25
456.427	13.24
456.786	13.28
457.145	13.31
457.505	13.35
457.864	13.38
458.223	13.44
458.582	13.49
458.941	13.54
459.3	13.58
459.659	13.61
460.018	13.63
460.376	13.65
460.735	13.65
461.094	13.65
461.453	13.65
461.811	13.65
462.17	13.65
462.529	13.63
462.887	13.6
463.246	13.61
463.604	13.61
463.963	13.63
464.321	13.7
464.679	13.7
465.038	13.71
465.396	13.72
465.754	13.73
466.112	13.74
466.47	13.76
466.828	13.78
467.186	13.77
467.544	13.77
467.902	13.76
468.26	13.67
468.618	13.67
468.976	13.66
469.334	13.66
469.692	13.65
470.049	13.62
470.407	13.6
470.765	13.58
471.122	13.58
471.48	13.59
471.837	13.59
472.195	13.61
472.552	13.61
472.909	13.65
473.267	13.64
473.624	13.65
473.981	13.66
474.338	13.65
474.696	13.66
475.053	13.66
475.41	13.64
475.767	13.65
476.124	13.63
476.481	13.63
476.838	13.6
477.194	13.59
477.551	13.59
477.908	13.58
478.265	13.58
478.621	13.59
478.978	13.59
479.335	13.59
479.691	13.59
480.048	13.59
480.404	13.58
480.761	13.58
481.117	13.59
481.473	13.55
481.83	13.53
482.186	13.5
482.542	13.47
482.898	13.46
483.255	13.45
483.611	13.42
483.967	13.4
484.323	13.38
484.679	13.38
485.035	13.37
485.39	13.38
485.746	13.4
486.102	13.42
486.458	13.42
486.814	13.41
487.169	13.43
487.525	13.43
487.88	13.43
488.236	13.43
488.591	13.4
488.947	13.37
489.302	13.36
489.658	13.34
490.013	13.31
490.368	13.27
490.723	13.24
491.079	13.2
491.434	13.19
491.789	13.17
492.144	13.16
492.499	13.15
492.854	13.16
493.209	13.16
493.564	13.14
493.919	13.13
494.273	13.15
494.628	13.15
494.983	13.14
495.338	13.12
495.692	13.1
496.047	13.08
496.401	13.05
496.756	13.01
497.11	12.96
497.465	12.94
497.819	12.91
498.173	12.88
498.528	12.87
498.882	12.84
499.236	12.82
499.59	12.78
499.944	12.76
500.298	12.76
500.652	12.76
501.006	12.76
501.36	12.75
501.714	12.74
502.068	12.74
502.422	12.72
502.776	12.73
503.129	12.75
503.483	12.78
503.837	12.8
504.19	12.8
504.544	12.8
504.897	12.8
505.251	12.78
505.604	12.76
505.958	12.74
506.311	12.71
506.664	12.68
507.017	12.62
507.371	12.58
507.724	12.53
508.077	12.48
508.43	12.45
508.783	12.42
509.136	12.41
509.489	12.4
509.842	12.37
510.195	12.35
510.547	12.33
510.9	12.31
511.253	12.28
511.606	12.25
511.958	12.21
512.311	12.16
512.663	12.11
513.016	12.07
513.368	12.03
513.721	12
514.073	11.97
514.425	11.94
514.778	11.93
515.13	11.92
515.482	11.91
515.834	11.9
516.186	11.9
516.538	11.9
516.89	11.91
517.242	11.91
517.594	11.91
517.946	11.91
518.298	11.89
518.65	11.87
519.001	11.85
519.353	11.82
519.705	11.8
520.056	11.75
520.408	11.75
520.759	11.68
521.111	11.65
521.462	11.63
521.814	11.59
522.165	11.59
522.516	11.56
522.868	11.54
523.219	11.5
523.57	11.48
523.921	11.43
524.272	11.38
524.623	11.35
524.974	11.3
525.325	11.27
525.676	11.23
526.027	11.2
526.378	11.17
526.728	11.12
527.079	11.09
527.43	11.07
527.78	11.06
528.131	11.04
528.481	11.02
528.832	11
529.182	10.98
529.533	10.94
529.883	10.91
530.233	10.91
530.584	10.91
530.934	10.89
531.284	10.85
531.634	10.79
531.984	10.76
532.334	10.72
532.684	10.66
533.034	10.63
533.384	10.63
533.734	10.62
534.084	10.56
534.434	10.51
534.783	10.46
535.133	10.44
535.483	10.43
535.832	10.39
536.182	10.39
536.531	10.39
536.881	10.36
537.23	10.34
537.58	10.29
537.929	10.25
538.278	10.92
538.628	10.91
538.977	10.87
539.326	10.83
539.675	10.8
540.024	10.74
540.373	10.7
540.722	10.66
541.071	10.62
541.42	10.63
541.769	10.61
542.117	9.9
542.466	9.88
542.815	9.84
543.163	9.82
543.512	9.79
543.861	9.77
544.209	9.74
544.558	9.71
544.906	9.68
545.254	9.62
545.603	9.6
545.951	9.57
546.299	9.57
546.647	9.59
546.996	9.59
547.344	9.58
547.692	9.56
548.04	9.56
548.388	9.55
548.736	9.53
549.083	9.5
549.431	9.46
549.779	9.42
550.127	9.34
550.475	9.26
550.822	9.22
551.17	9.17
551.517	9.15
551.865	9.11
552.212	9.09
552.56	9.08
552.907	9.06
553.254	9.04
553.602	9.05
553.949	9.07
554.296	9.02
554.643	9
554.99	8.99
555.337	8.96
555.684	8.94
556.031	8.91
556.378	8.9
556.725	8.87
557.072	8.84
557.419	8.78
557.765	8.71
558.112	8.72
558.459	8.67
558.805	8.6
559.152	8.56
559.498	8.51
559.845	8.49
560.191	8.43
560.538	8.43
560.884	8.4
561.23	8.39
561.576	8.37
561.923	8.33
562.269	8.3
562.615	8.32
562.961	8.29
563.307	8.28
563.653	8.23
563.999	8.19
564.344	8.14
564.69	8.1
565.036	8.07
565.382	8.05
565.727	8.05
566.073	8.04
566.419	8.01
566.764	7.99
567.11	7.96
567.455	7.94
567.8	7.95
568.146	7.95
568.491	7.95
568.836	7.91
569.181	7.88
569.527	7.84
569.872	7.79
570.217	7.74
570.562	7.75
570.907	7.72
571.252	7.69
571.597	7.65
571.941	7.61
572.286	7.59
572.631	7.58
572.976	7.58
573.32	7.56
573.665	7.55
574.009	7.55
574.354	7.56
574.698	7.57
575.043	7.58
575.387	7.58
575.731	7.58
576.076	7.52
576.42	7.53
576.764	7.52
577.108	7.5
577.452	7.5
577.796	7.5
578.14	7.47
578.484	7.45
578.828	7.45
579.172	7.44
579.516	7.4
579.86	7.4
580.203	7.39
580.547	7.38
580.891	7.36
581.234	7.34
581.578	7.33
581.921	7.31
582.264	7.3
582.608	7.27
582.951	7.27
583.294	7.26
583.638	7.25
583.981	7.24
584.324	7.24
584.667	7.23
585.01	7.21
585.353	7.2
585.696	7.21
586.039	7.22
586.382	7.21
586.725	7.2
587.067	7.19
587.41	7.19
587.753	7.18
588.095	7.17
588.438	7.18
588.781	7.19
589.123	7.12
589.465	7.13
589.808	7.11
590.15	7.1
590.492	7.09
590.835	7.09
591.177	7.08
591.519	7.08
591.861	7.09
592.203	7.1
592.545	7.12
592.887	7.14
593.229	7.14
593.571	7.11
593.913	7.09
594.254	7.09
594.596	7.07
594.938	7.07
595.279	7.07
595.621	7.07
595.963	7.06
596.304	7.04
596.645	7.03
596.987	7.02
597.328	7.02
597.669	7.03
598.011	7.02
598.352	7.01
598.693	6.98
599.034	6.98
599.375	6.95
599.716	6.94
600.057	6.92
600.398	6.9
600.739	6.91
601.08	6.88
601.42	6.88
601.761	6.89
602.102	6.9
602.442	6.93
602.783	6.93
603.123	6.92
603.464	6.91
603.804	6.91
604.145	6.9
604.485	6.9
604.825	6.89
605.166	6.87
605.506	6.86
605.846	6.85
606.186	6.85
606.526	6.85
606.866	6.84
607.206	6.83
607.546	6.81
607.886	6.77
608.225	6.77
608.565	6.77
608.905	6.76
609.245	6.69
609.584	6.66
609.924	6.62
610.263	6.61
610.603	6.61
610.942	6.59
611.281	6.58
611.621	6.58
611.96	6.57
612.299	6.59
612.638	6.59
612.978	6.6
613.317	6.61
613.656	6.61
613.995	6.6
614.334	6.59
614.672	6.58
615.011	6.58
615.35	6.55
615.689	6.5
616.027	6.5
616.366	6.52
616.705	6.54
617.043	6.53
617.382	6.53
617.72	6.49
618.059	6.47
618.397	6.49
618.735	6.49
619.073	6.49
619.412	6.49
619.75	6.48
620.088	6.44
620.426	6.42
620.764	6.4
621.102	6.39
621.44	6.38
621.778	6.36
622.115	6.34
622.453	6.36
622.791	6.38
623.129	6.37
623.466	6.36
623.804	6.33
624.141	6.32
624.479	6.31
624.816	6.29
625.153	6.29
625.491	6.3
625.828	6.29
626.165	6.27
626.502	6.25
626.84	6.24
627.177	6.23
627.514	6.2
627.851	6.19
628.188	6.18
628.524	6.12
628.861	6.12
629.198	6.1
629.535	6.08
629.871	6.05
630.208	6.02
630.545	6.02
630.881	5.96
631.218	5.92
631.554	5.92
631.89	5.9
632.227	5.92
632.563	5.94
632.899	5.93
633.235	5.91
633.572	5.88
633.908	5.87
634.244	5.89
634.58	5.98
634.916	6
635.251	6.04
635.587	6.04
635.923	6.06
636.259	6.07
636.595	6.08
636.93	6.12
637.266	6.17
637.601	6.18
637.937	6.09
638.272	5.98
638.608	6.01
638.943	5.96
639.278	5.93
639.613	5.85
639.949	5.76
640.284	5.71
640.619	5.68
640.954	5.69
641.289	5.68
641.624	5.72
641.959	5.79
642.294	5.73
642.628	5.71
642.963	5.72
643.298	5.7
643.632	5.77
643.967	5.78
644.302	5.71
644.636	5.69
644.971	5.63
645.305	5.64
645.639	5.58
645.974	5.6
646.308	5.53
646.642	5.51
646.976	5.53
647.31	5.48
647.644	5.52
647.978	5.56
648.312	5.54
648.646	5.59
648.98	5.56
649.314	5.54
649.647	5.5
649.981	5.49
650.315	5.4
650.648	5.41
650.982	5.37
651.315	5.31
651.649	5.26
651.982	5.23
652.316	5.22
652.649	5.2
652.982	5.25
653.315	5.26
653.648	5.35
653.982	5.43
654.315	5.44
654.648	5.48
654.981	5.52
655.313	5.59
655.646	5.64
655.979	5.57
656.312	5.56
656.644	5.54
656.977	5.5
657.31	5.4
657.642	5.35
657.975	5.35
658.307	5.32
658.64	5.31
658.972	5.26
659.304	5.24
659.636	5.22
659.969	5.21
660.301	5.16
660.633	5.22
660.965	5.21
661.297	5.24
661.629	5.18
661.961	5.14
662.292	5.13
662.624	5.14
662.956	5.11
663.288	5.17
663.619	5.2
663.951	5.22
664.282	5.15
664.614	5.18
664.945	5.21
665.276	5.19
665.608	5.27
665.939	5.24
666.27	5.18
666.601	5.2
666.933	5.17
667.264	5.2
667.595	5.25
667.926	5.25
668.256	5.26
668.587	5.15
668.918	5.17
669.249	5.11
669.58	5.11
669.91	5.12
670.241	5.04
670.571	5.05
670.902	4.95
671.232	4.91
671.563	4.9
671.893	4.87
672.223	4.95
672.554	5
672.884	4.97
673.214	4.92
673.544	4.93
673.874	4.96
674.204	4.97
674.534	5.02
674.864	5.03
675.194	5.05
675.524	5.02
675.853	5.04
676.183	4.95
676.513	4.96
676.842	4.96
677.172	4.99
677.501	4.98
677.831	4.92
678.16	4.9
678.489	4.86
678.819	4.94
679.148	5.06
679.477	5.09
679.806	5.11
680.135	5.11
680.464	5.19
680.793	5.18
681.122	5.17
681.451	5.19
681.78	5.1
682.108	5.09
682.437	5
682.766	4.94
683.094	4.79
683.423	4.83
683.751	4.87
684.08	4.79
684.408	4.72
684.737	4.73
685.065	4.67
685.393	4.84
685.721	4.83
686.049	4.9
686.377	4.78
686.705	4.83
687.033	4.75
687.361	4.74
687.689	4.73
688.017	4.8
688.345	4.78
688.673	4.81
689.0	4.68
689.328	4.76
689.655	4.77
689.983	4.91
690.31	4.92
690.638	5.07
690.965	5.03
691.292	5.17
691.62	5.17
691.947	5.15
692.274	5.17
692.601	5.28
692.928	5.22
693.255	5.19
693.582	5.17
693.909	5.26
694.236	5.19
694.562	5.2
694.889	5.1
695.216	5.13
695.542	5.22
695.869	5.23
696.196	5.23
696.522	5.21
696.848	5.23
697.175	5.16
697.501	5.09
697.827	5.04
698.154	4.98
698.48	4.98
698.806	5.02
699.132	4.93
699.458	4.97
699.784	4.91
700.11	4.83
700.435	4.79
700.761	4.82
701.087	4.77
701.413	4.78
701.738	4.82
702.064	4.74
702.389	4.69
702.715	4.72
703.04	4.62
703.366	4.61
703.691	4.69
704.016	4.69
704.341	4.76
704.666	4.84
704.992	4.8
705.317	4.83
705.642	4.87
705.967	4.74
706.291	4.69
706.616	4.64
706.941	4.72
707.266	4.83
707.59	4.75
707.915	4.75
708.24	4.57
708.564	4.51
708.889	4.57
709.213	4.56
709.537	4.5
709.862	4.49
710.186	4.61
710.51	4.52
710.834	4.44
711.158	4.46
711.482	4.29
711.806	4.42
712.13	4.49
712.454	4.35
712.778	4.37
713.102	4.54
713.426	4.7
713.749	4.7
714.073	4.69
714.396	4.72
714.72	4.84
715.043	4.89
715.367	4.92
715.69	5.02
716.013	5.06
716.337	5.03
716.66	5.07
716.983	5.02
717.306	5.07
717.629	5.18
717.952	5.08
718.275	5.03
718.598	4.94
718.921	4.82
719.243	4.9
719.566	4.9
719.889	5.12
720.211	5.07
720.534	5.07
720.856	4.9
721.179	4.87
721.501	5.06
721.823	5.21
722.146	5.33
722.468	5.38
722.79	5.23
723.112	5.24
723.434	5.07
723.756	5.15
724.078	5.2
724.4	5.33
724.722	5.28
725.044	5.1
725.366	4.75
725.687	4.68
726.009	4.72
726.33	4.72
726.652	4.67
726.973	4.7
727.295	4.53
727.616	4.48
727.938	4.39
728.259	4.55
728.58	4.69
728.901	4.87
729.222	5.08
729.543	5.15
729.864	5.22
730.185	5.27
730.506	5.2
730.827	5.5
731.148	5.43
731.468	5.44
731.789	5.34
732.11	5.34
732.43	5.51
732.751	5.54
733.071	5.34
733.392	5.28
733.712	5.54
734.032	5.6
734.352	5.29
734.673	5.19
734.993	5.17
735.313	5.29
735.633	5.53
735.953	5.18
736.273	5.04
736.593	5.17
736.912	5.13
737.232	4.96
737.552	4.82
737.871	4.71
738.191	4.93
738.51	5.14
738.83	4.87
739.149	4.61
739.469	4.87
739.788	5.16
740.107	5.27
740.426	5.55
740.746	5.7
741.065	5.84
741.384	6.02
741.703	5.9
742.022	5.79
742.341	5.93
742.659	5.75
742.978	5.61
743.297	5.27
743.615	5.03
743.934	4.65
744.253	4.35
744.571	4.51
744.89	4.39
745.208	4.59
745.526	4.61
745.845	4.51
746.163	4.54
746.481	4.88
746.799	4.53
747.117	4.58
747.435	4.66
747.753	4.68
748.071	4.59
748.389	4.94
748.706	4.82
749.024	4.82
749.342	4.92
749.659	5.43
749.977	5.03
750.295	5.43
750.612	5.38
750.929	5.2
751.247	5.26
751.564	5.06
751.881	4.53
752.198	4.75
752.516	4.76
752.833	4.78
753.15	4.25
753.467	4.31
753.783	4.15
754.1	4.5
754.417	4.63
754.734	4.48
755.05	4.8
755.367	5.16
755.684	5.04
756.0	5.05
756.317	4.75
756.633	4.95
756.949	5.27
757.266	5.54
757.582	5.64
757.898	6.03
758.214	6.31
758.53	6.02
758.846	6.08
759.162	6.07
759.478	5.94
759.794	6.2
760.11	6.18
760.426	5.96
760.741	5.85
761.057	5.28
761.372	4.95
761.688	4.74
762.003	4.68
762.319	4.61
762.634	4.62
762.949	4.61
763.265	4.54
763.58	4.71
763.895	4.5
764.21	4.43
764.525	4.63
764.84	4.71
765.155	4.58
765.47	4.67
765.785	4.52
766.099	4.42
766.414	4.43
766.729	4.51
767.043	4.39
767.358	4.65
767.672	4.81
767.987	4.85
768.301	5.12
768.615	5.48
768.929	5.46
769.244	5.51
769.558	5.85
769.872	6.03
770.186	6.13
770.5	5.69
770.814	5.52
771.127	5.54
771.441	5.33
771.755	4.64
772.069	4.28
772.382	4.69
772.696	5.14
773.009	4.7
773.323	4.63
773.636	4.4
773.95	4.25
774.263	4.81
774.576	4.83
774.889	5.05
775.202	5.71
775.515	6.16
775.828	5.93
776.141	5.97
776.454	6.14
776.767	5.97
777.08	6.05
777.393	6.87
777.705	6.21
778.018	6.09
778.33	5.92
778.643	5.62
778.955	5.19
779.268	5.24
779.58	5.17
779.892	5.27
780.205	5.2
780.517	5.49
780.829	5.48
781.141	5.86
781.453	5.8
781.765	6.28
782.077	5.94
782.388	6.01
782.7	5.4
783.012	5.2
783.324	4.93
783.635	5.38
783.947	5.29
784.258	5.31
784.57	5.33
784.881	5.55
785.192	6.23
785.504	6.8
785.815	7.04
786.126	7.36
786.437	8.08
786.748	8.31
787.059	8.2
787.37	7.99
787.681	7.67
787.992	7.79
788.302	8.19
788.613	7.63
788.924	7.43
789.234	7.29
789.545	7.2
789.855	6.51
790.166	6.2
790.476	5.37
790.786	4.83
791.096	4.48
791.407	4.26
791.717	3.74
792.027	3.28
792.337	3.36
792.647	3.4
792.957	3.48
793.266	3.29
793.576	3.93
793.886	5.23
794.196	5.83
794.505	9.87
794.815	9.91
795.124	9.94
795.434	10.75
795.743	10.69
796.052	10.34
796.362	10.77
796.671	11.1
796.98	11.3
797.289	10.63
797.598	10.44
797.907	6.73
798.216	6.73
798.525	6.93
798.834	5.88
799.142	6.35
799.451	6.66
799.76	6.44
800.068	6.21
800.377	5.21
800.685	5.25
800.994	4.74
801.302	4.65
801.61	4.45
801.918	3.8
802.227	3.47
802.535	3.09
802.843	2.85
803.151	2.06
803.459	2
803.767	2.37
804.074	2.65
804.382	3.25
804.69	4.69
804.998	4.84
805.305	5.54
805.613	6.25
805.92	5.98
806.228	6.75
806.535	6.79
806.842	7.04
807.15	6.43
807.457	6.03
807.764	6.32
808.071	5.02
808.378	5.63
808.685	5.57
808.992	5.54
809.299	5.44
809.605	5.4
809.912	6.41
810.219	5.67
810.525	6.75
810.832	6.99
811.138	6.74
811.445	6.98
811.751	6.57
812.058	6.16
812.364	6.79
812.67	7.25
812.976	7.13
813.282	7.75
813.588	8.25
813.894	8.94
814.2	8.64
814.506	9.04
814.812	9.35
815.118	8.84
815.423	9.11
815.729	7.69
816.035	7.18
816.34	6.68
816.646	5.57
816.951	5.36
817.256	3.71
817.562	4.47
817.867	4.18
818.172	3.73
818.477	3.93
818.782	5.25
819.087	5.83
819.392	5.97
819.697	6.45
820.002	6.33
820.306	6.95
820.611	7.18
820.916	7.35
821.22	7.78
821.525	7.64
821.829	7.4
822.134	6.33
822.438	6.3
822.742	6.11
823.047	5.95
823.351	6.06
823.655	5.8
823.959	5.66
824.263	5.44
824.567	5.29
824.871	5.17
825.174	5.14
825.478	7.65
825.782	7.84
826.086	7.81
826.389	8.1
826.693	7.97
826.996	7.98
827.3	8.18
827.603	8.32
827.906	8.28
828.209	8.36
828.513	8.48
828.816	5.85
829.119	5.67
829.422	5.93
829.725	5.72
830.028	6.02
830.33	6.47
830.633	6.88
830.936	6.85
831.238	7.06
831.541	7.35
831.844	7.5
832.146	6.73
832.448	6.66
832.751	6.71
833.053	6.93
833.355	7.27
833.657	7.1
833.96	6.9
834.262	6.98
834.564	6.91
834.865	7.23
835.167	8.19
835.469	8.12
835.771	7.64
836.073	7.56
836.374	7.54
836.676	7.11
836.977	7.18
837.279	7.19
837.58	7.53
837.882	8.24
838.183	7.68
838.484	7.28
838.785	7.54
839.086	8.55
839.387	9.09
839.688	9.16
839.989	9.36
840.29	9.24
840.591	9.15
840.892	9.08
841.192	9.06
841.493	9.39
841.794	9.06
842.094	9.61
842.394	10.02
842.695	10.02
842.995	10.02
843.295	10.02
843.596	10.02
843.896	10.02
844.196	10.02
844.496	10.02
844.796	10.02
845.096	10.02
845.396	10.02
845.695	10.02
845.995	3.36
846.295	4.91
846.594	6.16
846.894	7.22
847.194	7.31
847.493	7.82
847.792	8
848.092	8
848.391	7.5
848.69	8
848.989	7.43
849.288	7.55
849.587	7.15
849.886	5.96
850.185	6.59
850.484	7.27
850.783	8.08
851.081	7.74
851.38	6.13
851.679	7.09
851.977	6.25
852.276	7.46
852.574	5.68
852.872	8.33
853.171	9.45
853.469	9.62
853.767	8.89
854.065	8.26
854.363	9.84
854.661	10.83
854.959	12.13
855.257	12.17
855.555	11.55
855.853	14.65
856.15	14.93
856.448	15.11
856.746	14.71
857.043	13.77
857.341	18.14
857.638	20.31
857.935	19.94
858.233	20.2
858.53	20.56
858.827	23.31
859.124	23.66
859.421	21.95
859.718	22.67
860.015	23.27
860.312	25.23
860.609	20.95
860.905	19.52
861.202	19.6
861.499	15.62
861.795	16.74
862.092	13.22
862.388	12.64
862.684	12.45
862.981	8.61
863.277	7.66
863.573	5.05
863.869	5.15
864.165	1.02
864.461	1.04
864.757	5.62
865.053	4.06
865.349	0.72
865.645	0.01
865.94	0.01
866.236	1.32
866.532	3.03
866.827	6.14
867.123	6.53
867.418	9.71
867.713	12.28
868.009	10.24
868.304	9.58
868.599	13.26
868.894	12.93
869.189	14.53
869.484	15.99
869.779	16.16
870.074	12.79
870.369	12
870.663	11.75
870.958	11.26
871.252	13.36
871.547	15.26
871.842	14.14
872.136	14
872.43	13.85
872.725	14.47
873.019	12.72
873.313	13.9
873.607	13.6
873.901	12.56
874.195	11.78
874.489	11.64
874.783	11.45
875.077	10.22
875.37	9.43
875.664	8.33
875.958	5.97
876.251	7.71
876.545	7.47
876.838	7.16
877.132	9.01
877.425	11.9
877.718	10.12
878.011	9
878.305	12.84
878.598	14.51
878.891	13.95
879.184	15.18
879.476	16.76
879.769	16.86
880.062	14.31
880.355	11.71
880.647	8.32
880.94	8.81
881.232	9.36
881.525	6.95
881.817	4.33
882.11	6.3
882.402	6.59
882.694	4.04
882.986	4.36
883.278	5.68
883.57	6.49
883.862	6.67
884.154	6.7
884.446	6.28
884.738	6.67
885.03	7.91
885.321	8.12
885.613	7.85
885.904	7.72
886.196	8.12
886.487	8.64
886.779	8.64
887.07	8.88
887.361	8.82
887.652	9.66
887.943	9.24
888.234	8.62
888.525	8.83
888.816	10.66
889.107	12.94
889.398	14.54
889.689	15.94
889.979	17.76
890.27	19.67
890.56	22.3
890.851	23.25
891.141	27.14
891.432	30.56
891.722	32.45
