Data from groin1_Reflection__0__15-22-29-769.txt Node

Date: Thu Aug 04 15:22:29 AEST 2022
User: kathy
Spectrometer: JAZA2503
Trigger mode: 0
Integration Time (sec): 2.439700E-1
Scans to average: 10
Electric dark correction enabled: true
Nonlinearity correction enabled: true
Boxcar width: 5
XAxis mode: Wavelengths
Number of Pixels in Spectrum: 2048
>>>>>Begin Spectral Data<<<<<
189.467	243.47
189.852	238.36
190.237	186.62
190.622	130.92
191.007	134.36
191.392	41.99
191.777	42.23
192.162	55.15
192.546	134.22
192.931	517.94
193.316	-10.94
193.701	220.4
194.086	267.99
194.47	212.98
194.855	-4800.87
195.24	-740.51
195.624	335.32
196.009	201.37
196.393	309.04
196.778	835.75
197.163	276.13
197.547	183.12
197.931	146.12
198.316	105.5
198.7	82.54
199.085	73.81
199.469	68.24
199.853	65.45
200.237	61.97
200.622	59.54
201.006	58.85
201.39	61.57
201.774	50.6
202.158	54.05
202.542	53.27
202.926	47.46
203.31	37.49
203.694	32.93
204.078	24.33
204.462	28.57
204.846	32.5
205.23	29.26
205.614	23.53
205.998	32.25
206.381	35.67
206.765	39.38
207.149	42.88
207.532	46.5
207.916	47.55
208.3	47.28
208.683	44.97
209.067	46.37
209.45	41.66
209.834	47.85
210.217	46.57
210.601	36.4
210.984	39.5
211.367	45.41
211.751	43.39
212.134	43.57
212.517	46.77
212.901	47.92
213.284	47.8
213.667	48.76
214.05	43.31
214.433	41.22
214.816	44.92
215.199	40.67
215.582	40.92
215.965	38.2
216.348	39.69
216.731	35.58
217.114	30.07
217.497	26.65
217.88	23.14
218.262	23.88
218.645	22.24
219.028	23.26
219.411	20.89
219.793	18.58
220.176	20.74
220.559	18.59
220.941	18.85
221.324	25.81
221.706	27.25
222.089	29.74
222.471	30.33
222.853	27.74
223.236	24.67
223.618	25.01
224	21.93
224.383	20.45
224.765	17.09
225.147	15.87
225.529	12.24
225.912	9.1
226.294	6.84
226.676	4.25
227.058	3.85
227.44	3.91
227.822	3.68
228.204	4.33
228.586	3.98
228.968	4.21
229.349	4.81
229.731	4.52
230.113	4.23
230.495	4.49
230.877	4.81
231.258	5.44
231.64	5.24
232.022	4.94
232.403	4.83
232.785	4.92
233.166	4.86
233.548	4.31
233.929	4.57
234.311	4.91
234.692	5.24
235.073	5.38
235.455	5.43
235.836	6.29
236.217	6.19
236.599	6.1
236.98	6.17
237.361	6.14
237.742	6.08
238.123	6.05
238.504	5.72
238.885	5.22
239.266	4.95
239.647	4.06
240.028	3.25
240.409	3.29
240.79	3.37
241.171	3.27
241.552	3.29
241.933	3.09
242.313	3.2
242.694	3.35
243.075	3.51
243.456	3.44
243.836	3.56
244.217	3.89
244.597	3.92
244.978	3.76
245.358	3.85
245.739	3.78
246.119	3.85
246.5	3.72
246.88	3.51
247.26	3.19
247.641	3.1
248.021	3.07
248.401	2.87
248.781	2.91
249.162	3.01
249.542	2.84
249.922	2.82
250.302	2.83
250.682	2.74
251.062	2.84
251.442	2.95
251.822	2.99
252.202	2.94
252.582	3.07
252.961	2.98
253.341	2.99
253.721	3.13
254.101	3.26
254.48	3.15
254.86	3.19
255.24	3.42
255.619	3.53
255.999	3.55
256.378	3.63
256.758	3.46
257.137	3.36
257.517	3.1
257.896	2.86
258.276	2.57
258.655	2.33
259.034	2.21
259.414	2.01
259.793	1.9
260.172	1.85
260.551	1.78
260.93	1.72
261.309	1.77
261.688	1.7
262.068	1.68
262.447	1.67
262.825	1.75
263.204	1.75
263.583	1.68
263.962	1.7
264.341	1.81
264.72	1.77
265.099	1.79
265.477	1.68
265.856	1.72
266.235	1.77
266.613	1.74
266.992	1.68
267.371	1.65
267.749	1.73
268.128	1.59
268.506	1.59
268.884	1.72
269.263	1.7
269.641	1.63
270.02	1.63
270.398	1.56
270.776	1.57
271.154	1.64
271.533	1.73
271.911	1.7
272.289	1.82
272.667	1.8
273.045	1.81
273.423	1.82
273.801	1.91
274.179	1.85
274.557	1.97
274.935	1.97
275.313	1.96
275.69	1.94
276.068	1.94
276.446	1.92
276.824	1.86
277.201	1.73
277.579	1.75
277.957	1.71
278.334	1.76
278.712	1.67
279.089	1.64
279.467	1.59
279.844	1.62
280.222	1.52
280.599	1.48
280.976	1.52
281.354	1.52
281.731	1.49
282.108	1.49
282.485	1.42
282.863	1.45
283.24	1.5
283.617	1.55
283.994	1.51
284.371	1.55
284.748	1.57
285.125	1.56
285.502	1.6
285.879	1.6
286.256	1.6
286.633	1.7
287.009	1.75
287.386	1.78
287.763	1.76
288.139	1.77
288.516	1.86
288.893	1.9
289.269	1.92
289.646	1.96
290.022	2.04
290.399	2.12
290.775	2.15
291.152	2.21
291.528	2.27
291.904	2.33
292.281	2.4
292.657	2.44
293.033	2.5
293.41	2.58
293.786	2.65
294.162	2.73
294.538	2.79
294.914	2.87
295.29	2.93
295.666	3.01
296.042	3.13
296.418	3.25
296.794	3.34
297.17	3.47
297.546	3.59
297.921	3.69
298.297	3.79
298.673	3.89
299.048	3.98
299.424	4.09
299.8	4.24
300.175	4.36
300.551	4.47
300.926	4.58
301.302	4.67
301.677	4.74
302.053	4.85
302.428	4.96
302.803	5.09
303.179	5.26
303.554	5.37
303.929	5.45
304.304	5.56
304.68	5.64
305.055	5.77
305.43	5.87
305.805	6
306.18	6.07
306.555	6.15
306.93	6.23
307.305	6.24
307.679	6.27
308.054	6.29
308.429	6.31
308.804	6.32
309.179	6.35
309.553	6.35
309.928	6.38
310.303	6.42
310.677	6.48
311.052	6.48
311.426	6.54
311.801	6.59
312.175	6.62
312.55	6.69
312.924	6.74
313.298	6.81
313.673	6.86
314.047	6.92
314.421	7.01
314.795	7.05
315.17	7.15
315.544	7.2
315.918	7.27
316.292	7.4
316.666	7.49
317.04	7.64
317.414	7.75
317.788	7.92
318.162	8.08
318.535	8.24
318.909	8.38
319.283	8.58
319.657	8.76
320.03	9.05
320.404	9.29
320.778	9.8
321.151	10.42
321.525	11.2
321.898	12.13
322.272	13.07
322.645	14.14
323.019	15.31
323.392	16.59
323.765	18.13
324.139	19.74
324.512	21.47
324.885	23.29
325.258	25.11
325.632	26.69
326.005	28.11
326.378	29.43
326.751	30.51
327.124	31.34
327.497	31.97
327.87	32.56
328.243	33.03
328.616	33.38
328.988	33.63
329.361	33.73
329.734	33.87
330.107	33.93
330.479	33.86
330.852	33.72
331.225	33.64
331.597	33.51
331.97	33.2
332.342	32.93
332.715	32.65
333.087	32.46
333.46	32.27
333.832	32.16
334.204	32.13
334.577	32.08
334.949	31.99
335.321	31.88
335.693	31.69
336.065	31.49
336.438	31.2
336.81	30.96
337.182	30.74
337.554	30.48
337.926	30.28
338.298	30.12
338.669	29.97
339.041	29.84
339.413	29.77
339.785	29.73
340.157	29.61
340.528	29.61
340.9	29.53
341.272	29.46
341.643	29.48
342.015	29.52
342.386	29.69
342.758	29.98
343.129	30.29
343.501	30.52
343.872	30.64
344.243	30.65
344.615	30.61
344.986	30.4
345.357	30.39
345.728	30.38
346.099	30.41
346.471	30.42
346.842	30.43
347.213	30.42
347.584	30.43
347.955	30.51
348.326	30.46
348.697	30.5
349.067	30.55
349.438	30.69
349.809	30.81
350.18	31.08
350.55	31.18
350.921	31.3
351.292	31.48
351.662	31.57
352.033	31.71
352.403	31.8
352.774	31.88
353.144	31.98
353.515	32.03
353.885	32.05
354.255	32.07
354.626	32.1
354.996	32.07
355.366	32.05
355.736	32.11
356.107	32.09
356.477	32.11
356.847	32.13
357.217	32.16
357.587	32.21
357.957	32.25
358.327	32.33
358.697	32.43
359.066	32.47
359.436	32.58
359.806	32.59
360.176	32.69
360.546	32.76
360.915	32.81
361.285	32.87
361.654	32.91
362.024	32.94
362.393	32.92
362.763	32.95
363.132	32.99
363.502	32.98
363.871	33.02
364.24	33.07
364.61	33.09
364.979	33.15
365.348	33.2
365.717	33.23
366.087	33.28
366.456	33.36
366.825	33.39
367.194	33.45
367.563	33.51
367.932	33.57
368.301	33.62
368.669	33.71
369.038	33.74
369.407	33.76
369.776	33.83
370.145	33.85
370.513	33.91
370.882	33.97
371.25	34.04
371.619	34.08
371.988	34.09
372.356	34.13
372.724	34.12
373.093	34.13
373.461	34.13
373.83	34.15
374.198	34.21
374.566	34.22
374.934	34.18
375.303	34.18
375.671	34.19
376.039	34.24
376.407	34.27
376.775	34.3
377.143	34.39
377.511	34.45
377.879	34.47
378.247	34.51
378.615	34.57
378.982	34.7
379.35	34.78
379.718	34.83
380.086	34.87
380.453	34.92
380.821	34.98
381.188	34.95
381.556	34.99
381.923	35.06
382.291	35.08
382.658	35.1
383.026	35.12
383.393	35.13
383.76	35.19
384.128	35.28
384.495	35.29
384.862	35.33
385.229	35.4
385.596	35.41
385.963	35.42
386.33	35.47
386.697	35.53
387.064	35.52
387.431	35.56
387.798	35.5
388.165	35.51
388.532	35.56
388.899	35.55
389.265	35.58
389.632	35.59
389.999	35.59
390.365	35.61
390.732	35.6
391.098	35.62
391.465	35.61
391.831	35.67
392.198	35.65
392.564	35.69
392.93	35.73
393.297	35.76
393.663	35.83
394.029	35.9
394.395	35.97
394.762	36.05
395.128	36.11
395.494	36.19
395.86	36.27
396.226	36.37
396.592	36.43
396.958	36.5
397.323	36.56
397.689	36.65
398.055	36.74
398.421	36.8
398.787	36.86
399.152	36.95
399.518	37.01
399.883	37.08
400.249	37.16
400.615	37.23
400.98	37.3
401.345	37.36
401.711	37.38
402.076	37.39
402.442	37.41
402.807	37.45
403.172	37.5
403.537	37.5
403.902	37.54
404.268	37.55
404.633	37.57
404.998	37.58
405.363	37.6
405.728	37.63
406.093	37.71
406.457	37.74
406.822	37.77
407.187	37.79
407.552	37.89
407.917	37.95
408.281	37.99
408.646	38.05
409.011	38.13
409.375	38.23
409.74	38.29
410.104	38.3
410.469	38.34
410.833	38.39
411.197	38.43
411.562	38.51
411.926	38.52
412.29	38.57
412.655	38.56
413.019	38.6
413.383	38.65
413.747	38.69
414.111	38.76
414.475	38.87
414.839	38.94
415.203	39.02
415.567	39.05
415.931	39.15
416.295	39.2
416.658	39.3
417.022	39.35
417.386	39.36
417.749	39.38
418.113	39.4
418.477	39.44
418.84	39.46
419.204	39.49
419.567	39.53
419.931	39.61
420.294	39.71
420.657	39.76
421.021	39.84
421.384	39.91
421.747	40.02
422.11	40.11
422.473	40.14
422.836	40.22
423.199	40.27
423.562	40.34
423.925	40.34
424.288	40.35
424.651	40.39
425.014	40.44
425.377	40.49
425.74	40.53
426.102	40.55
426.465	40.68
426.828	40.74
427.19	40.81
427.553	40.86
427.916	40.9
428.278	40.93
428.641	40.95
429.003	40.95
429.365	40.94
429.728	40.94
430.09	40.95
430.452	40.89
430.814	40.86
431.177	40.82
431.539	40.79
431.901	40.8
432.263	40.84
432.625	40.92
432.987	40.99
433.349	41.11
433.711	41.22
434.072	41.37
434.434	41.49
434.796	41.6
435.158	41.75
435.519	41.89
435.881	42
436.243	42.09
436.604	42.11
436.966	42.15
437.327	42.18
437.689	42.23
438.05	42.2
438.411	42.23
438.773	42.28
439.134	42.3
439.495	42.33
439.856	42.39
440.218	42.43
440.579	42.51
440.94	42.58
441.301	42.66
441.662	42.73
442.023	42.85
442.384	42.91
442.745	42.98
443.105	43.02
443.466	43.11
443.827	43.09
444.188	43.15
444.548	43.24
444.909	43.33
445.269	43.35
445.63	43.34
445.99	43.32
446.351	43.38
446.711	43.4
447.072	43.46
447.432	43.48
447.792	43.58
448.153	43.62
448.513	43.62
448.873	43.58
449.233	43.58
449.593	43.62
449.953	43.65
450.313	43.66
450.673	43.69
451.033	43.75
451.393	43.77
451.753	43.81
452.113	44.35
452.472	44.38
452.832	44.37
453.192	44.36
453.551	44.33
453.911	44.27
454.271	44.2
454.63	44.13
454.989	44.09
455.349	44.05
455.708	44.01
456.068	43.75
456.427	43.75
456.786	43.81
457.145	43.9
457.505	44
457.864	44.13
458.223	44.31
458.582	44.5
458.941	44.67
459.3	44.85
459.659	44.98
460.018	45.08
460.376	45.19
460.735	45.26
461.094	45.31
461.453	45.37
461.811	45.43
462.17	45.46
462.529	45.45
462.887	45.45
463.246	45.44
463.604	45.47
463.963	45.51
464.321	45.62
464.679	45.67
465.038	45.73
465.396	45.78
465.754	45.84
466.112	45.92
466.47	46.07
466.828	46.2
467.186	46.34
467.544	46.42
467.902	46.52
468.26	46.47
468.618	46.51
468.976	46.55
469.334	46.57
469.692	46.56
470.049	46.51
470.407	46.45
470.765	46.39
471.122	46.37
471.48	46.46
471.837	46.51
472.195	46.59
472.552	46.69
472.909	46.74
473.267	46.8
473.624	46.88
473.981	46.96
474.338	47.02
474.696	47.07
475.053	47.14
475.41	47.11
475.767	47.12
476.124	47.11
476.481	47.14
476.838	47.16
477.194	47.17
477.551	47.16
477.908	47.17
478.265	47.18
478.621	47.19
478.978	47.21
479.335	47.24
479.691	47.3
480.048	47.32
480.404	47.33
480.761	47.35
481.117	47.37
481.473	47.38
481.83	47.39
482.186	47.39
482.542	47.4
482.898	47.36
483.255	47.41
483.611	47.4
483.967	47.44
484.323	47.47
484.679	47.5
485.035	47.55
485.39	47.58
485.746	47.62
486.102	47.69
486.458	47.73
486.814	47.79
487.169	47.85
487.525	47.89
487.88	47.91
488.236	47.9
488.591	47.91
488.947	47.87
489.302	47.85
489.658	47.85
490.013	47.78
490.368	47.71
490.723	47.68
491.079	47.58
491.434	47.56
491.789	47.52
492.144	47.55
492.499	47.56
492.854	47.61
493.209	47.65
493.564	47.71
493.919	47.81
494.273	47.91
494.628	47.97
494.983	48.06
495.338	48.09
495.692	48.1
496.047	48.08
496.401	48.05
496.756	47.96
497.11	47.92
497.465	47.8
497.819	47.69
498.173	47.63
498.528	47.57
498.882	47.49
499.236	47.48
499.59	47.48
499.944	47.49
500.298	47.52
500.652	47.56
501.006	47.55
501.36	47.56
501.714	47.58
502.068	47.6
502.422	47.64
502.776	47.72
503.129	47.79
503.483	47.9
503.837	48.01
504.19	48.09
504.544	48.17
504.897	48.21
505.251	48.23
505.604	48.24
505.958	48.23
506.311	48.19
506.664	48.12
507.017	48
507.371	47.88
507.724	47.74
508.077	47.62
508.43	47.56
508.783	47.54
509.136	47.56
509.489	47.53
509.842	47.51
510.195	47.52
510.547	47.46
510.9	47.45
511.253	47.37
511.606	47.29
511.958	47.19
512.311	47.08
512.663	46.96
513.016	46.82
513.368	46.71
513.721	46.62
514.073	46.52
514.425	46.46
514.778	46.38
515.13	46.35
515.482	46.31
515.834	46.33
516.186	46.33
516.538	46.34
516.89	46.42
517.242	46.5
517.594	46.58
517.946	46.66
518.298	46.67
518.65	46.72
519.001	46.71
519.353	46.74
519.705	46.7
520.056	46.62
520.408	46.55
520.759	46.43
521.111	46.34
521.462	46.23
521.814	46.13
522.165	46.12
522.516	46.1
522.868	46.08
523.219	45.98
523.57	45.93
523.921	45.88
524.272	45.81
524.623	45.77
524.974	45.68
525.325	45.61
525.676	45.48
526.027	45.42
526.378	45.28
526.728	45.13
527.079	45.09
527.43	44.98
527.78	44.92
528.131	44.85
528.481	44.77
528.832	44.71
529.182	44.63
529.533	44.61
529.883	44.52
530.233	44.46
530.584	44.4
530.934	44.29
531.284	44.22
531.634	44.16
531.984	44.09
532.334	43.95
532.684	43.84
533.034	43.75
533.384	43.71
533.734	43.6
534.084	43.5
534.434	43.45
534.783	43.37
535.133	43.28
535.483	43.19
535.832	43.09
536.182	43.03
536.531	42.94
536.881	42.85
537.23	42.75
537.58	42.69
537.929	42.63
538.278	43.55
538.628	43.45
538.977	43.35
539.326	43.25
539.675	43.16
540.024	43.1
540.373	43.05
540.722	43.01
541.071	42.91
541.42	42.86
541.769	42.75
542.117	41.67
542.466	41.62
542.815	41.56
543.163	41.48
543.512	41.36
543.861	41.24
544.209	41.12
544.558	40.96
544.906	40.87
545.254	40.69
545.603	40.64
545.951	40.56
546.299	40.49
546.647	40.43
546.996	40.36
547.344	40.3
547.692	40.23
548.04	40.17
548.388	40.12
548.736	40.01
549.083	39.97
549.431	39.88
549.779	39.78
550.127	39.63
550.475	39.49
550.822	39.38
551.17	39.29
551.517	39.25
551.865	39.18
552.212	39.06
552.56	39.03
552.907	38.94
553.254	38.81
553.602	38.67
553.949	38.6
554.296	38.53
554.643	38.38
554.99	38.25
555.337	38.09
555.684	37.99
556.031	37.89
556.378	37.75
556.725	37.62
557.072	37.5
557.419	37.39
557.765	37.26
558.112	37.14
558.459	37.1
558.805	37
559.152	36.86
559.498	36.72
559.845	36.55
560.191	36.44
560.538	36.37
560.884	36.27
561.23	36.18
561.576	36.07
561.923	35.91
562.269	35.75
562.615	35.6
562.961	35.47
563.307	35.3
563.653	35.28
563.999	35.16
564.344	35
564.69	34.86
565.036	34.76
565.382	34.64
565.727	34.55
566.073	34.47
566.419	34.4
566.764	34.36
567.11	34.29
567.455	34.11
567.8	34.02
568.146	33.9
568.491	33.78
568.836	33.61
569.181	33.48
569.527	33.3
569.872	33.19
570.217	33.05
570.562	32.92
570.907	32.81
571.252	32.73
571.597	32.63
571.941	32.5
572.286	32.41
572.631	32.38
572.976	32.35
573.32	32.31
573.665	32.31
574.009	32.31
574.354	32.32
574.698	32.33
575.043	32.21
575.387	32.19
575.731	32.12
576.076	32.06
576.42	32.02
576.764	31.93
577.108	31.9
577.452	31.82
577.796	31.76
578.14	31.73
578.484	31.57
578.828	31.5
579.172	31.48
579.516	31.46
579.86	31.35
580.203	31.2
580.547	31.23
580.891	31.14
581.234	31.03
581.578	30.91
581.921	30.84
582.264	30.8
582.608	30.7
582.951	30.64
583.294	30.61
583.638	30.55
583.981	30.52
584.324	30.47
584.667	30.41
585.01	30.38
585.353	30.34
585.696	30.33
586.039	30.28
586.382	30.25
586.725	30.23
587.067	30.19
587.41	30.16
587.753	30.11
588.095	30.06
588.438	30
588.781	29.97
589.123	29.91
589.465	29.88
589.808	29.88
590.15	29.8
590.492	29.67
590.835	29.66
591.177	29.58
591.519	29.52
591.861	29.47
592.203	29.42
592.545	29.36
592.887	29.29
593.229	29.25
593.571	29.17
593.913	29.06
594.254	29.03
594.596	28.93
594.938	28.9
595.279	28.84
595.621	28.78
595.963	28.76
596.304	28.69
596.645	28.64
596.987	28.6
597.328	28.57
597.669	28.51
598.011	28.46
598.352	28.44
598.693	28.41
599.034	28.37
599.375	28.37
599.716	28.31
600.057	28.3
600.398	28.24
600.739	28.21
601.08	28.2
601.42	28.19
601.761	28.18
602.102	28.14
602.442	28.13
602.783	28.09
603.123	28.04
603.464	27.99
603.804	27.95
604.145	27.91
604.485	27.86
604.825	27.84
605.166	27.74
605.506	27.7
605.846	27.64
606.186	27.54
606.526	27.46
606.866	27.41
607.206	27.36
607.546	27.24
607.886	27.2
608.225	27.15
608.565	27.1
608.905	26.9
609.245	26.91
609.584	26.8
609.924	26.77
610.263	26.75
610.603	26.7
610.942	26.67
611.281	26.62
611.621	26.59
611.96	26.52
612.299	26.46
612.638	26.43
612.978	26.36
613.317	26.31
613.656	26.29
613.995	26.28
614.334	26.23
614.672	26.2
615.011	26.18
615.35	26.14
615.689	26.01
616.027	25.99
616.366	25.96
616.705	25.91
617.043	25.87
617.382	25.8
617.72	25.78
618.059	25.66
618.397	25.6
618.735	25.56
619.073	25.49
619.412	25.48
619.75	25.44
620.088	25.4
620.426	25.38
620.764	25.31
621.102	25.28
621.44	25.23
621.778	25.15
622.115	25.11
622.453	25.09
622.791	25.05
623.129	24.99
623.466	24.92
623.804	24.85
624.141	24.77
624.479	24.71
624.816	24.68
625.153	24.61
625.491	24.54
625.828	24.41
626.165	24.43
626.502	24.37
626.84	24.31
627.177	24.22
627.514	24.15
627.851	24.05
628.188	23.97
628.524	23.84
628.861	23.81
629.198	23.81
629.535	23.73
629.871	23.67
630.208	23.62
630.545	23.59
630.881	23.5
631.218	23.42
631.554	23.38
631.89	23.32
632.227	23.26
632.563	23.25
632.899	23.1
633.235	23.03
633.572	22.98
633.908	22.87
634.244	22.82
634.58	22.74
634.916	22.68
635.251	22.63
635.587	22.53
635.923	22.44
636.259	22.32
636.595	22.29
636.93	22.23
637.266	22.15
637.601	22.1
637.937	21.96
638.272	21.87
638.608	21.76
638.943	21.62
639.278	21.54
639.613	21.46
639.949	21.42
640.284	21.32
640.619	21.29
640.954	21.29
641.289	21.22
641.624	21.15
641.959	21.14
642.294	21.08
642.628	21.03
642.963	21.02
643.298	20.93
643.632	20.89
643.967	20.81
644.302	20.66
644.636	20.55
644.971	20.46
645.305	20.44
645.639	20.32
645.974	20.22
646.308	20.12
646.642	20
646.976	20.02
647.31	19.81
647.644	19.84
647.978	19.78
648.312	19.72
648.646	19.71
648.98	19.67
649.314	19.63
649.647	19.6
649.981	19.55
650.315	19.42
650.648	19.33
650.982	19.42
651.315	19.29
651.649	19.26
651.982	19.2
652.316	19.14
652.649	19.01
652.982	19
653.315	18.9
653.648	18.94
653.982	19.05
654.315	18.99
654.648	18.86
654.981	18.81
655.313	18.75
655.646	18.67
655.979	18.52
656.312	18.51
656.644	18.41
656.977	18.36
657.31	18.13
657.642	17.96
657.975	17.9
658.307	17.85
658.64	17.74
658.972	17.71
659.304	17.69
659.636	17.7
659.969	17.62
660.301	17.55
660.633	17.57
660.965	17.56
661.297	17.6
661.629	17.61
661.961	17.58
662.292	17.53
662.624	17.46
662.956	17.4
663.288	17.43
663.619	17.43
663.951	17.41
664.282	17.31
664.614	17.26
664.945	17.16
665.276	17.01
665.608	16.95
665.939	16.95
666.27	16.89
666.601	16.88
666.933	16.72
667.264	16.63
667.595	16.62
667.926	16.52
668.256	16.48
668.587	16.43
668.918	16.37
669.249	16.31
669.58	16.29
669.91	16.23
670.241	16.2
670.571	16.21
670.902	16.13
671.232	16.1
671.563	16.09
671.893	16.08
672.223	16
672.554	16.02
672.884	16.03
673.214	15.96
673.544	15.98
673.874	15.93
674.204	15.98
674.534	15.99
674.864	15.94
675.194	15.93
675.524	15.87
675.853	15.91
676.183	15.82
676.513	15.81
676.842	15.84
677.172	15.83
677.501	15.84
677.831	15.66
678.16	15.63
678.489	15.59
678.819	15.59
679.148	15.63
679.477	15.66
679.806	15.63
680.135	15.52
680.464	15.44
680.793	15.35
681.122	15.19
681.451	15.18
681.78	15.03
682.108	14.92
682.437	14.7
682.766	14.54
683.094	14.33
683.423	14.24
683.751	14.21
684.08	14.05
684.408	14.02
684.737	14.02
685.065	13.9
685.393	14.03
685.721	14.08
686.049	14.26
686.377	14.24
686.705	14.32
687.033	14.33
687.361	14.28
687.689	14.39
688.017	14.35
688.345	14.37
688.673	14.44
689.0	14.36
689.328	14.35
689.655	14.31
689.983	14.33
690.31	14.27
690.638	14.28
690.965	14.28
691.292	14.25
691.62	14.26
691.947	14.21
692.274	14.14
692.601	14.1
692.928	14.02
693.255	13.87
693.582	13.89
693.909	13.84
694.236	13.75
694.562	13.68
694.889	13.73
695.216	13.71
695.542	13.7
695.869	13.59
696.196	13.54
696.522	13.43
696.848	13.44
697.175	13.44
697.501	13.4
697.827	13.42
698.154	13.39
698.48	13.21
698.806	13.19
699.132	13.12
699.458	13.24
699.784	13.23
700.11	13.25
700.435	13.26
700.761	13.2
701.087	13.16
701.413	13.09
701.738	13.08
702.064	13.02
702.389	12.92
702.715	12.91
703.04	12.78
703.366	12.72
703.691	12.66
704.016	12.54
704.341	12.66
704.666	12.67
704.992	12.71
705.317	12.81
705.642	12.84
705.967	12.84
706.291	12.74
706.616	12.73
706.941	12.84
707.266	13.03
707.59	13.07
707.915	13.02
708.24	12.95
708.564	12.84
708.889	12.69
709.213	12.66
709.537	12.52
709.862	12.51
710.186	12.42
710.51	12.18
710.834	11.9
711.158	11.86
711.482	11.67
711.806	11.68
712.13	11.67
712.454	11.7
712.778	11.84
713.102	11.84
713.426	12
713.749	12.06
714.073	12.14
714.396	12.19
714.72	12.28
715.043	12.35
715.367	12.37
715.69	12.41
716.013	12.47
716.337	12.37
716.66	12.53
716.983	12.42
717.306	12.43
717.629	12.43
717.952	12.41
718.275	12.27
718.598	12.1
718.921	11.95
719.243	12.12
719.566	12.06
719.889	12.24
720.211	12.12
720.534	12.14
720.856	12.05
721.179	11.94
721.501	12.12
721.823	12.28
722.146	12.36
722.468	12.31
722.79	12.15
723.112	12.15
723.434	11.89
723.756	12.01
724.078	12.09
724.4	12.1
724.722	12.13
725.044	11.89
725.366	11.7
725.687	11.69
726.009	12.08
726.33	11.92
726.652	11.88
726.973	11.83
727.295	11.67
727.616	11.48
727.938	11.4
728.259	11.45
728.58	11.49
728.901	11.63
729.222	11.72
729.543	11.6
729.864	11.69
730.185	11.66
730.506	11.52
730.827	11.63
731.148	11.57
731.468	11.55
731.789	11.52
732.11	11.48
732.43	11.5
732.751	11.4
733.071	11.24
733.392	11.22
733.712	11.37
734.032	11.47
734.352	11.24
734.673	11.16
734.993	11.22
735.313	11.36
735.633	11.86
735.953	11.91
736.273	11.91
736.593	11.83
736.912	11.68
737.232	11.68
737.552	11.81
737.871	11.81
738.191	12.03
738.51	12.05
738.83	11.88
739.149	11.19
739.469	10.89
739.788	11.15
740.107	11.41
740.426	11.59
740.746	11.5
741.065	11.41
741.384	11.42
741.703	11.33
742.022	11.38
742.341	11.38
742.659	11.69
742.978	11.88
743.297	11.48
743.615	11.3
743.934	11.12
744.253	10.88
744.571	10.81
744.89	10.87
745.208	10.83
745.526	10.81
745.845	10.69
746.163	10.55
746.481	10.75
746.799	10.6
747.117	10.42
747.435	10.48
747.753	10.62
748.071	10.63
748.389	10.68
748.706	10.54
749.024	10.55
749.342	10.58
749.659	10.98
749.977	10.51
750.295	10.79
750.612	11
750.929	11.04
751.247	11.08
751.564	11.18
751.881	11.19
752.198	11.8
752.516	11.74
752.833	11.93
753.15	11.26
753.467	11.5
753.783	11.39
754.1	11.58
754.417	11.71
754.734	11.7
755.05	11.78
755.367	11.68
755.684	11.28
756.0	10.83
756.317	10.55
756.633	10.67
756.949	10.5
757.266	10.56
757.582	10.37
757.898	10.33
758.214	10.24
758.53	9.78
758.846	9.78
759.162	9.84
759.478	9.96
759.794	10.04
760.11	10.19
760.426	10.11
760.741	10.19
761.057	10
761.372	9.81
761.688	9.89
762.003	10.3
762.319	10.15
762.634	10.25
762.949	10.25
763.265	10.29
763.58	10.47
763.895	10.36
764.21	10.18
764.525	10.28
764.84	10.37
765.155	10.14
765.47	9.8
765.785	9.77
766.099	9.72
766.414	9.91
766.729	9.71
767.043	9.58
767.358	9.68
767.672	9.76
767.987	9.81
768.301	10.06
768.615	10.54
768.929	10.77
769.244	11.19
769.558	11.17
769.872	11.43
770.186	11.6
770.5	11.36
770.814	11.58
771.127	11.47
771.441	10.91
771.755	10.72
772.069	10.11
772.382	10.29
772.696	10.28
773.009	10.01
773.323	9.76
773.636	9.84
773.95	9.8
774.263	9.68
774.576	10.06
774.889	10.79
775.202	10.99
775.515	11.52
775.828	11.65
776.141	11.39
776.454	11.21
776.767	10.64
777.08	10.86
777.393	11.57
777.705	11.79
778.018	11.16
778.33	10.93
778.643	10.33
778.955	10.05
779.268	10.16
779.58	10.35
779.892	10.68
780.205	11.28
780.517	11.46
780.829	11.43
781.141	11.5
781.453	12.22
781.765	12.26
782.077	12.3
782.388	12.12
782.7	11.32
783.012	11.43
783.324	11.29
783.635	11.43
783.947	10.8
784.258	10.2
784.57	10.29
784.881	9.57
785.192	9.93
785.504	10.56
785.815	11.17
786.126	11.62
786.437	11.48
786.748	11.58
787.059	11.48
787.37	11.38
787.681	11.09
787.992	10.91
788.302	11.91
788.613	11.7
788.924	11.16
789.234	11.06
789.545	11.05
789.855	11.02
790.166	11.18
790.476	10.73
790.786	10.73
791.096	11.02
791.407	11.11
791.717	10.15
792.027	10.01
792.337	10.04
792.647	9.74
792.957	9.65
793.266	9.49
793.576	9.65
793.886	10.31
794.196	10.71
794.505	14.71
794.815	14.49
795.124	14.98
795.434	15.04
795.743	15.14
796.052	14.93
796.362	15.32
796.671	15.82
796.98	15.82
797.289	15.14
797.598	14.76
797.907	10.7
798.216	10.82
798.525	10.55
798.834	10.32
799.142	10.84
799.451	10.87
799.76	10.02
800.068	9.65
800.377	9.5
800.685	9.85
800.994	9.8
801.302	9.12
801.61	8.87
801.918	8.87
802.227	8.91
802.535	8.21
802.843	8.7
803.151	8.36
803.459	8.32
803.767	8
804.074	8.23
804.382	8.5
804.69	10.68
804.998	11.04
805.305	11.23
805.613	10.98
805.92	11.06
806.228	10.43
806.535	10.49
806.842	10.48
807.15	10.1
807.457	9.51
807.764	9.41
808.071	7.45
808.378	7.9
808.685	8.17
808.992	7.98
809.299	7.45
809.605	8.09
809.912	9.47
810.219	8.42
810.525	8.85
810.832	8.78
811.138	9.02
811.445	9.93
811.751	9.5
812.058	8.98
812.364	10.09
812.67	10.71
812.976	11.06
813.282	11.49
813.588	12.43
813.894	12.74
814.2	13.5
814.506	13.54
814.812	14.41
815.118	14.31
815.423	14.47
815.729	13.7
816.035	12.94
816.34	11.64
816.646	10.89
816.951	10.9
817.256	10.19
817.562	10.5
817.867	10.02
818.172	8.61
818.477	8.68
818.782	9.25
819.087	9.35
819.392	9.95
819.697	10.05
820.002	9.8
820.306	9.76
820.611	10.22
820.916	9.49
821.22	10.25
821.525	9.98
821.829	9.68
822.134	9.2
822.438	9.39
822.742	9.14
823.047	9.27
823.351	9.2
823.655	9.16
823.959	9.05
824.263	9.02
824.567	9.03
824.871	8.98
825.174	8.96
825.478	9.89
825.782	9.87
826.086	10.05
826.389	10.15
826.693	10.15
826.996	10.02
827.3	10.18
827.603	10.47
827.906	10.22
828.209	10.35
828.513	10.37
828.816	9.65
829.119	9.41
829.422	9.39
829.725	9.38
830.028	9.57
830.33	10.06
830.633	10.35
830.936	10.25
831.238	10.16
831.541	10.87
831.844	10.96
832.146	10.18
832.448	10.52
832.751	10.94
833.053	11.22
833.355	11.47
833.657	11.37
833.96	10.82
834.262	10.64
834.564	11.41
834.865	10.83
835.167	11.66
835.469	11.9
835.771	11.53
836.073	11.24
836.374	11.26
836.676	10.48
836.977	10.46
837.279	10.71
837.58	11.1
837.882	10.97
838.183	10.94
838.484	10.47
838.785	10.39
839.086	11.07
839.387	11.03
839.688	10.67
839.989	11.76
840.29	11.34
840.591	10.84
840.892	9.88
841.192	10.5
841.493	9.88
841.794	10.28
842.094	10.2
842.394	10.65
842.695	21.91
842.995	23.75
843.295	23.27
843.596	23.71
843.896	24.52
844.196	25.9
844.496	25.8
844.796	26.81
845.096	27.52
845.396	28.64
845.695	28.27
845.995	12.43
846.295	10.37
846.594	12.53
846.894	13.91
847.194	15.22
847.493	15.87
847.792	15.87
848.092	15.75
848.391	13.86
848.69	15.62
848.989	16
849.288	16.79
849.587	17.39
849.886	16.62
850.185	17.93
850.484	18.44
850.783	19.44
851.081	17.46
851.38	15.99
851.679	15.75
851.977	13.18
852.276	12.24
852.574	9.96
852.872	9.7
853.171	9.45
853.469	6.85
853.767	3.56
854.065	1.29
854.363	3.39
854.661	7.16
854.959	9.78
855.257	13.29
855.555	14.87
855.853	15.35
856.15	15.8
856.448	15.74
856.746	16.5
857.043	17.44
857.341	20.96
857.638	24.1
857.935	20.88
858.233	20.86
858.53	18.97
858.827	19.24
859.124	20.17
859.421	19.76
859.718	19.49
860.015	19.47
860.312	18.91
860.609	17.28
860.905	14
861.202	16.39
861.499	14.08
861.795	15.66
862.092	14.24
862.388	12.8
862.684	12.93
862.981	12.82
863.277	12.39
863.573	12.69
863.869	11.42
864.165	8.66
864.461	7.56
864.757	10.13
865.053	6.6
865.349	6.78
865.645	7.93
865.94	9
866.236	10.61
866.532	12.36
866.827	15.49
867.123	15.57
867.418	21.86
867.713	22.59
868.009	21.93
868.304	25.21
868.599	25.63
868.894	27.91
869.189	29.09
869.484	27.65
869.779	25.36
870.074	23.43
870.369	24.22
870.663	19.85
870.958	18.33
871.252	18.81
871.547	17.34
871.842	18.68
872.136	17.59
872.43	16.42
872.725	18.09
873.019	18.48
873.313	19.32
873.607	18.65
873.901	19.59
874.195	21.68
874.489	22.22
874.783	19.73
875.077	16.95
875.37	16.46
875.664	14.27
875.958	10.02
876.251	11.14
876.545	9.75
876.838	7.99
877.132	8.39
877.425	7.43
877.718	8.43
878.011	12.14
878.305	16.99
878.598	16.54
878.891	17.78
879.184	19.77
879.476	23.03
879.769	25.01
880.062	26.54
880.355	24.4
880.647	22.44
880.94	19.33
881.232	16.55
881.525	11.92
881.817	11.21
882.11	11.92
882.402	12.08
882.694	11.01
882.986	10.17
883.278	9.89
883.57	11.24
883.862	12.48
884.154	12.46
884.446	12.68
884.738	12.59
885.03	12.83
885.321	12.86
885.613	12.93
885.904	12.16
886.196	12.61
886.487	12.73
886.779	12.12
887.07	11.68
887.361	11.87
887.652	12.15
887.943	12.4
888.234	12.68
888.525	13.06
888.816	14.17
889.107	15.7
889.398	16.79
889.689	18.42
889.979	20.91
890.27	21.45
890.56	22.78
890.851	23.84
891.141	26.5
891.432	27.25
891.722	28.6
