Data from groin3_Reflection__2__12-15-10-686.txt Node

Date: Thu Aug 04 12:15:10 AEST 2022
User: kathy
Spectrometer: JAZA2503
Trigger mode: 0
Integration Time (sec): 2.883200E-1
Scans to average: 10
Electric dark correction enabled: true
Nonlinearity correction enabled: true
Boxcar width: 5
XAxis mode: Wavelengths
Number of Pixels in Spectrum: 2048
>>>>>Begin Spectral Data<<<<<
189.467	-118.65
189.852	-337.97
190.237	-8094.7
190.622	-452.87
191.007	-156.56
191.392	-277.72
191.777	-264.63
192.162	-112.21
192.546	-138.82
192.931	-114.34
193.316	-114.54
193.701	-349.29
194.086	253.98
194.47	205.46
194.855	340.37
195.24	7401.43
195.624	392.67
196.009	381.69
196.393	241.8
196.778	-1876.06
197.163	-24.99
197.547	5.98
197.931	-12.48
198.316	-3.89
198.7	-9.09
199.085	0.36
199.469	10.57
199.853	17.49
200.237	27.77
200.622	26.1
201.006	26.92
201.39	23.23
201.774	23.39
202.158	28
202.542	28.33
202.926	26.45
203.31	20.68
203.694	11.93
204.078	5.93
204.462	7.2
204.846	5.5
205.23	8.01
205.614	5.1
205.998	-1.94
206.381	-3.68
206.765	-0.14
207.149	2.65
207.532	14.3
207.916	18.55
208.3	17.51
208.683	18.29
209.067	20.64
209.45	20.55
209.834	24.72
210.217	32.19
210.601	32.87
210.984	32.92
211.367	37.52
211.751	38.8
212.134	34.81
212.517	30.21
212.901	29.32
213.284	28.71
213.667	28.26
214.05	24.46
214.433	21.01
214.816	20.23
215.199	24.16
215.582	18.2
215.965	13.45
216.348	16.09
216.731	21.73
217.114	15.62
217.497	10.15
217.88	9.94
218.262	7.61
218.645	4.69
219.028	1.77
219.411	-4.39
219.793	-2.16
220.176	-1.26
220.559	-2.42
220.941	-4.51
221.324	-1.68
221.706	0.32
222.089	0.2
222.471	2.42
222.853	2.28
223.236	5.38
223.618	6.36
224	6.89
224.383	4.02
224.765	5.76
225.147	7.17
225.529	7.92
225.912	7.29
226.294	6.69
226.676	6.52
227.058	6.51
227.44	4.57
227.822	3.69
228.204	3.24
228.586	3.41
228.968	2.85
229.349	2.39
229.731	2.34
230.113	1.91
230.495	2.06
230.877	1.75
231.258	1.83
231.64	2.11
232.022	1.82
232.403	1.58
232.785	2.1
233.166	2.08
233.548	2.09
233.929	1.85
234.311	2.04
234.692	1.6
235.073	1.77
235.455	1.81
235.836	1.75
236.217	2.57
236.599	2.64
236.98	2.1
237.361	1.98
237.742	1.9
238.123	1.89
238.504	1.85
238.885	1.97
239.266	1.94
239.647	1.6
240.028	1.69
240.409	1.19
240.79	1.34
241.171	1.41
241.552	1.46
241.933	1.45
242.313	1.31
242.694	1.42
243.075	1.58
243.456	1.51
243.836	1.71
244.217	1.69
244.597	1.77
244.978	1.76
245.358	1.8
245.739	1.82
246.119	1.77
246.5	1.86
246.88	1.82
247.26	1.6
247.641	1.59
248.021	1.52
248.401	1.48
248.781	1.49
249.162	1.47
249.542	1.4
249.922	1.36
250.302	1.39
250.682	1.32
251.062	1.26
251.442	1.31
251.822	1.3
252.202	1.31
252.582	1.29
252.961	1.41
253.341	1.59
253.721	1.58
254.101	1.51
254.48	1.53
254.86	1.49
255.24	1.55
255.619	1.76
255.999	1.69
256.378	1.56
256.758	1.66
257.137	1.54
257.517	1.34
257.896	1.39
258.276	1.38
258.655	1.26
259.034	1.24
259.414	1.13
259.793	1.01
260.172	1.04
260.551	1.01
260.93	0.95
261.309	0.86
261.688	0.87
262.068	0.83
262.447	0.83
262.825	0.75
263.204	0.7
263.583	0.7
263.962	0.75
264.341	0.73
264.72	0.76
265.099	0.7
265.477	0.79
265.856	0.75
266.235	0.79
266.613	0.8
266.992	1.01
267.371	1.05
267.749	1.17
268.128	1.13
268.506	1.16
268.884	1.14
269.263	1.11
269.641	1.09
270.02	1.04
270.398	0.99
270.776	1.02
271.154	0.97
271.533	0.96
271.911	0.86
272.289	0.82
272.667	0.83
273.045	0.86
273.423	0.92
273.801	0.87
274.179	0.88
274.557	0.85
274.935	0.81
275.313	0.71
275.69	0.74
276.068	0.78
276.446	0.83
276.824	0.76
277.201	0.75
277.579	0.7
277.957	0.75
278.334	0.69
278.712	0.71
279.089	0.66
279.467	0.8
279.844	0.8
280.222	0.77
280.599	0.8
280.976	0.82
281.354	0.79
281.731	0.83
282.108	0.89
282.485	0.94
282.863	0.97
283.24	0.98
283.617	0.95
283.994	0.95
284.371	1.01
284.748	1
285.125	1.04
285.502	1.06
285.879	1.05
286.256	1.03
286.633	1.09
287.009	1.13
287.386	1.2
287.763	1.26
288.139	1.33
288.516	1.35
288.893	1.33
289.269	1.37
289.646	1.46
290.022	1.52
290.399	1.52
290.775	1.51
291.152	1.54
291.528	1.54
291.904	1.53
292.281	1.56
292.657	1.58
293.033	1.64
293.41	1.72
293.786	1.73
294.162	1.76
294.538	1.87
294.914	1.97
295.29	2.01
295.666	2.07
296.042	2.13
296.418	2.2
296.794	2.29
297.17	2.35
297.546	2.41
297.921	2.49
298.297	2.56
298.673	2.62
299.048	2.66
299.424	2.72
299.8	2.78
300.175	2.85
300.551	2.91
300.926	2.95
301.302	3.01
301.677	3.03
302.053	3.1
302.428	3.1
302.803	3.14
303.179	3.19
303.554	3.25
303.929	3.32
304.304	3.37
304.68	3.41
305.055	3.49
305.43	3.52
305.805	3.55
306.18	3.55
306.555	3.65
306.93	3.69
307.305	3.72
307.679	3.75
308.054	3.74
308.429	3.74
308.804	3.77
309.179	3.79
309.553	3.81
309.928	3.86
310.303	3.91
310.677	3.93
311.052	3.97
311.426	3.99
311.801	4.03
312.175	4.07
312.55	4.14
312.924	4.17
313.298	4.15
313.673	4.21
314.047	4.25
314.421	4.27
314.795	4.31
315.17	4.34
315.544	4.39
315.918	4.43
316.292	4.5
316.666	4.59
317.04	4.68
317.414	4.82
317.788	4.92
318.162	5.03
318.535	5.18
318.909	5.33
319.283	5.4
319.657	5.54
320.03	5.72
320.404	5.9
320.778	6.23
321.151	6.77
321.525	7.34
321.898	8.06
322.272	8.85
322.645	9.69
323.019	10.53
323.392	11.42
323.765	12.52
324.139	13.61
324.512	14.75
324.885	15.88
325.258	16.95
325.632	17.84
326.005	18.55
326.378	19.16
326.751	19.71
327.124	19.98
327.497	20.25
327.87	20.42
328.243	20.61
328.616	20.71
328.988	20.8
329.361	20.83
329.734	20.77
330.107	20.71
330.479	20.59
330.852	20.41
331.225	20.24
331.597	20.13
331.97	19.96
332.342	19.77
332.715	19.59
333.087	19.4
333.46	19.19
333.832	19.1
334.204	18.97
334.577	18.87
334.949	18.8
335.321	18.71
335.693	18.58
336.065	18.37
336.438	18.25
336.81	18.17
337.182	18.03
337.554	17.88
337.926	17.73
338.298	17.58
338.669	17.42
339.041	17.31
339.413	17.22
339.785	17.19
340.157	17.12
340.528	17.02
340.9	16.93
341.272	16.85
341.643	16.78
342.015	16.78
342.386	16.86
342.758	16.99
343.129	17.1
343.501	17.25
343.872	17.35
344.243	17.39
344.615	17.29
344.986	17.25
345.357	17.21
345.728	17.2
346.099	17.15
346.471	17.13
346.842	17.11
347.213	17.09
347.584	17.12
347.955	17.13
348.326	17.09
348.697	17.06
349.067	17.02
349.438	17.01
349.809	17.03
350.18	17.14
350.55	17.21
350.921	17.27
351.292	17.32
351.662	17.39
352.033	17.46
352.403	17.51
352.774	17.55
353.144	17.59
353.515	17.63
353.885	17.66
354.255	17.63
354.626	17.65
354.996	17.65
355.366	17.65
355.736	17.64
356.107	17.62
356.477	17.63
356.847	17.66
357.217	17.67
357.587	17.65
357.957	17.67
358.327	17.7
358.697	17.72
359.066	17.74
359.436	17.77
359.806	17.8
360.176	17.85
360.546	17.87
360.915	17.86
361.285	17.88
361.654	17.92
362.024	17.94
362.393	17.96
362.763	17.98
363.132	17.99
363.502	18.01
363.871	18.02
364.24	18.03
364.61	18.06
364.979	18.11
365.348	18.15
365.717	18.16
366.087	18.18
366.456	18.21
366.825	18.26
367.194	18.29
367.563	18.33
367.932	18.39
368.301	18.43
368.669	18.48
369.038	18.48
369.407	18.53
369.776	18.58
370.145	18.63
370.513	18.65
370.882	18.67
371.25	18.71
371.619	18.77
371.988	18.78
372.356	18.8
372.724	18.81
373.093	18.89
373.461	18.91
373.83	18.93
374.198	18.98
374.566	19.02
374.934	19.05
375.303	19.07
375.671	19.08
376.039	19.13
376.407	19.18
376.775	19.2
377.143	19.23
377.511	19.27
377.879	19.31
378.247	19.34
378.615	19.4
378.982	19.5
379.35	19.57
379.718	19.62
380.086	19.65
380.453	19.68
380.821	19.77
381.188	19.8
381.556	19.84
381.923	19.89
382.291	19.93
382.658	19.92
383.026	19.94
383.393	19.97
383.76	20.03
384.128	20.09
384.495	20.14
384.862	20.15
385.229	20.21
385.596	20.27
385.963	20.31
386.33	20.34
386.697	20.41
387.064	20.45
387.431	20.46
387.798	20.48
388.165	20.5
388.532	20.5
388.899	20.51
389.265	20.49
389.632	20.49
389.999	20.49
390.365	20.5
390.732	20.51
391.098	20.51
391.465	20.52
391.831	20.52
392.198	20.56
392.564	20.58
392.93	20.6
393.297	20.66
393.663	20.68
394.029	20.7
394.395	20.74
394.762	20.78
395.128	20.82
395.494	20.87
395.86	20.93
396.226	20.93
396.592	20.98
396.958	21.02
397.323	21.04
397.689	21.1
398.055	21.15
398.421	21.2
398.787	21.25
399.152	21.28
399.518	21.3
399.883	21.34
400.249	21.39
400.615	21.44
400.98	21.47
401.345	21.5
401.711	21.5
402.076	21.49
402.442	21.5
402.807	21.47
403.172	21.48
403.537	21.47
403.902	21.47
404.268	21.47
404.633	21.46
404.998	21.48
405.363	21.47
405.728	21.5
406.093	21.51
406.457	21.52
406.822	21.56
407.187	21.57
407.552	21.6
407.917	21.6
408.281	21.6
408.646	21.61
409.011	21.63
409.375	21.63
409.74	21.64
410.104	21.65
410.469	21.66
410.833	21.63
411.197	21.64
411.562	21.64
411.926	21.65
412.29	21.66
412.655	21.64
413.019	21.63
413.383	21.65
413.747	21.66
414.111	21.7
414.475	21.73
414.839	21.77
415.203	21.81
415.567	21.85
415.931	21.86
416.295	21.88
416.658	21.91
417.022	21.92
417.386	21.92
417.749	21.92
418.113	21.9
418.477	21.91
418.84	21.91
419.204	21.91
419.567	21.91
419.931	21.92
420.294	21.95
420.657	21.97
421.021	22.01
421.384	22.05
421.747	22.06
422.11	22.12
422.473	22.15
422.836	22.17
423.199	22.17
423.562	22.17
423.925	22.19
424.288	22.18
424.651	22.19
425.014	22.18
425.377	22.19
425.74	22.22
426.102	22.22
426.465	22.24
426.828	22.27
427.19	22.3
427.553	22.33
427.916	22.33
428.278	22.35
428.641	22.33
429.003	22.35
429.365	22.35
429.728	22.37
430.09	22.34
430.452	22.3
430.814	22.27
431.177	22.23
431.539	22.22
431.901	22.24
432.263	22.28
432.625	22.32
432.987	22.35
433.349	22.4
433.711	22.43
434.072	22.51
434.434	22.59
434.796	22.69
435.158	22.79
435.519	22.85
435.881	22.9
436.243	22.93
436.604	22.96
436.966	23
437.327	23.01
437.689	23.01
438.05	22.98
438.411	22.94
438.773	22.92
439.134	22.93
439.495	22.95
439.856	22.94
440.218	22.94
440.579	23
440.94	23.04
441.301	23.08
441.662	23.11
442.023	23.18
442.384	23.24
442.745	23.28
443.105	23.28
443.466	23.3
443.827	23.33
444.188	23.37
444.548	23.35
444.909	23.36
445.269	23.36
445.63	23.39
445.99	23.38
446.351	23.41
446.711	23.41
447.072	23.44
447.432	23.45
447.792	23.47
448.153	23.48
448.513	23.51
448.873	23.5
449.233	23.49
449.593	23.48
449.953	23.48
450.313	23.47
450.673	23.49
451.033	23.49
451.393	23.5
451.753	23.5
452.113	24.01
452.472	23.98
452.832	23.95
453.192	23.94
453.551	23.93
453.911	23.95
454.271	23.95
454.63	23.94
454.989	23.95
455.349	23.97
455.708	23.96
456.068	23.71
456.427	23.74
456.786	23.79
457.145	23.84
457.505	23.9
457.864	23.97
458.223	24.07
458.582	24.16
458.941	24.27
459.3	24.34
459.659	24.41
460.018	24.48
460.376	24.51
460.735	24.53
461.094	24.55
461.453	24.57
461.811	24.56
462.17	24.54
462.529	24.54
462.887	24.5
463.246	24.5
463.604	24.5
463.963	24.5
464.321	24.61
464.679	24.63
465.038	24.66
465.396	24.68
465.754	24.73
466.112	24.76
466.47	24.8
466.828	24.85
467.186	24.88
467.544	24.93
467.902	24.94
468.26	24.85
468.618	24.87
468.976	24.87
469.334	24.88
469.692	24.85
470.049	24.8
470.407	24.74
470.765	24.7
471.122	24.69
471.48	24.68
471.837	24.73
472.195	24.75
472.552	24.79
472.909	24.81
473.267	24.82
473.624	24.88
473.981	24.92
474.338	24.96
474.696	25
475.053	25
475.41	25.02
475.767	25.04
476.124	25.06
476.481	25.06
476.838	25.07
477.194	25.09
477.551	25.08
477.908	25.09
478.265	25.11
478.621	25.12
478.978	25.14
479.335	25.15
479.691	25.14
480.048	25.15
480.404	25.14
480.761	25.17
481.117	25.18
481.473	25.19
481.83	25.2
482.186	25.19
482.542	25.17
482.898	25.17
483.255	25.18
483.611	25.19
483.967	25.21
484.323	25.25
484.679	25.23
485.035	25.25
485.39	25.27
485.746	25.28
486.102	25.3
486.458	25.31
486.814	25.34
487.169	25.32
487.525	25.33
487.88	25.32
488.236	25.32
488.591	25.33
488.947	25.31
489.302	25.3
489.658	25.3
490.013	25.3
490.368	25.3
490.723	25.28
491.079	25.29
491.434	25.29
491.789	25.28
492.144	25.28
492.499	25.28
492.854	25.28
493.209	25.28
493.564	25.28
493.919	25.29
494.273	25.31
494.628	25.31
494.983	25.31
495.338	25.29
495.692	25.29
496.047	25.26
496.401	25.24
496.756	25.2
497.11	25.16
497.465	25.12
497.819	25.1
498.173	25.07
498.528	25.06
498.882	25.04
499.236	25.07
499.59	25.08
499.944	25.11
500.298	25.14
500.652	25.16
501.006	25.19
501.36	25.22
501.714	25.21
502.068	25.22
502.422	25.23
502.776	25.24
503.129	25.25
503.483	25.26
503.837	25.3
504.19	25.34
504.544	25.35
504.897	25.36
505.251	25.33
505.604	25.3
505.958	25.29
506.311	25.25
506.664	25.21
507.017	25.13
507.371	25.05
507.724	24.95
508.077	24.86
508.43	24.8
508.783	24.75
509.136	24.74
509.489	24.74
509.842	24.69
510.195	24.66
510.547	24.64
510.9	24.63
511.253	24.59
511.606	24.58
511.958	24.51
512.311	24.43
512.663	24.36
513.016	24.28
513.368	24.19
513.721	24.14
514.073	24.09
514.425	24.04
514.778	23.99
515.13	23.96
515.482	23.91
515.834	23.89
516.186	23.9
516.538	23.9
516.89	23.9
517.242	23.94
517.594	23.96
517.946	23.97
518.298	23.96
518.65	23.95
519.001	23.92
519.353	23.9
519.705	23.86
520.056	23.8
520.408	23.7
520.759	23.63
521.111	23.55
521.462	23.5
521.814	23.45
522.165	23.41
522.516	23.37
522.868	23.34
523.219	23.28
523.57	23.22
523.921	23.17
524.272	23.14
524.623	23.08
524.974	22.99
525.325	22.88
525.676	22.79
526.027	22.7
526.378	22.63
526.728	22.58
527.079	22.53
527.43	22.5
527.78	22.46
528.131	22.41
528.481	22.38
528.832	22.35
529.182	22.34
529.533	22.32
529.883	22.3
530.233	22.23
530.584	22.16
530.934	22.1
531.284	22.03
531.634	21.97
531.984	21.91
532.334	21.83
532.684	21.75
533.034	21.7
533.384	21.63
533.734	21.61
534.084	21.58
534.434	21.54
534.783	21.52
535.133	21.45
535.483	21.38
535.832	21.32
536.182	21.27
536.531	21.25
536.881	21.16
537.23	21.09
537.58	20.97
537.929	20.88
538.278	21.3
538.628	21.17
538.977	21.1
539.326	21.02
539.675	20.98
540.024	20.91
540.373	20.82
540.722	20.77
541.071	20.72
541.42	20.67
541.769	20.62
542.117	20.08
542.466	20.07
542.815	20.05
543.163	20.01
543.512	19.96
543.861	19.93
544.209	19.88
544.558	19.83
544.906	19.76
545.254	19.72
545.603	19.69
545.951	19.63
546.299	19.65
546.647	19.62
546.996	19.59
547.344	19.55
547.692	19.49
548.04	19.47
548.388	19.43
548.736	19.43
549.083	19.39
549.431	19.34
549.779	19.29
550.127	19.15
550.475	19.05
550.822	18.98
551.17	18.89
551.517	18.84
551.865	18.78
552.212	18.74
552.56	18.68
552.907	18.61
553.254	18.52
553.602	18.46
553.949	18.41
554.296	18.37
554.643	18.31
554.99	18.24
555.337	18.16
555.684	18.05
556.031	17.97
556.378	17.88
556.725	17.8
557.072	17.74
557.419	17.66
557.765	17.58
558.112	17.5
558.459	17.42
558.805	17.39
559.152	17.34
559.498	17.3
559.845	17.25
560.191	17.18
560.538	17.14
560.884	17.09
561.23	17.04
561.576	16.94
561.923	16.85
562.269	16.79
562.615	16.71
562.961	16.63
563.307	16.6
563.653	16.57
563.999	16.48
564.344	16.4
564.69	16.36
565.036	16.32
565.382	16.31
565.727	16.29
566.073	16.24
566.419	16.17
566.764	16.12
567.11	16.02
567.455	15.94
567.8	15.9
568.146	15.81
568.491	15.77
568.836	15.67
569.181	15.61
569.527	15.53
569.872	15.48
570.217	15.42
570.562	15.38
570.907	15.34
571.252	15.28
571.597	15.26
571.941	15.24
572.286	15.15
572.631	15.11
572.976	15.1
573.32	15.06
573.665	15.03
574.009	15
574.354	14.99
574.698	14.94
575.043	14.93
575.387	14.91
575.731	14.87
576.076	14.84
576.42	14.81
576.764	14.75
577.108	14.74
577.452	14.72
577.796	14.68
578.14	14.64
578.484	14.57
578.828	14.51
579.172	14.5
579.516	14.46
579.86	14.42
580.203	14.37
580.547	14.36
580.891	14.31
581.234	14.28
581.578	14.21
581.921	14.2
582.264	14.14
582.608	14.12
582.951	14.08
583.294	14.06
583.638	14.04
583.981	14
584.324	14
584.667	13.95
585.01	13.93
585.353	13.9
585.696	13.88
586.039	13.88
586.382	13.87
586.725	13.82
587.067	13.8
587.41	13.77
587.753	13.76
588.095	13.75
588.438	13.74
588.781	13.73
589.123	13.71
589.465	13.65
589.808	13.64
590.15	13.63
590.492	13.59
590.835	13.54
591.177	13.52
591.519	13.48
591.861	13.45
592.203	13.44
592.545	13.43
592.887	13.4
593.229	13.35
593.571	13.34
593.913	13.33
594.254	13.3
594.596	13.26
594.938	13.26
595.279	13.25
595.621	13.19
595.963	13.18
596.304	13.17
596.645	13.17
596.987	13.16
597.328	13.12
597.669	13.09
598.011	13.1
598.352	13.11
598.693	13.06
599.034	13.05
599.375	13.02
599.716	13.01
600.057	12.97
600.398	12.95
600.739	12.95
601.08	12.92
601.42	12.9
601.761	12.87
602.102	12.87
602.442	12.84
602.783	12.83
603.123	12.82
603.464	12.79
603.804	12.74
604.145	12.74
604.485	12.65
604.825	12.64
605.166	12.63
605.506	12.58
605.846	12.57
606.186	12.56
606.526	12.54
606.866	12.53
607.206	12.49
607.546	12.47
607.886	12.44
608.225	12.4
608.565	12.36
608.905	12.35
609.245	12.33
609.584	12.27
609.924	12.26
610.263	12.25
610.603	12.21
610.942	12.2
611.281	12.18
611.621	12.17
611.96	12.16
612.299	12.15
612.638	12.14
612.978	12.14
613.317	12.13
613.656	12.1
613.995	12.08
614.334	12.06
614.672	12.03
615.011	12
615.35	11.98
615.689	11.98
616.027	12.01
616.366	12
616.705	11.95
617.043	11.95
617.382	11.94
617.72	11.9
618.059	11.86
618.397	11.83
618.735	11.8
619.073	11.78
619.412	11.75
619.75	11.69
620.088	11.63
620.426	11.59
620.764	11.56
621.102	11.57
621.44	11.52
621.778	11.46
622.115	11.44
622.453	11.42
622.791	11.41
623.129	11.33
623.466	11.3
623.804	11.26
624.141	11.2
624.479	11.16
624.816	11.1
625.153	11.08
625.491	11.05
625.828	11.01
626.165	11
626.502	10.96
626.84	10.92
627.177	10.9
627.514	10.84
627.851	10.8
628.188	10.75
628.524	10.69
628.861	10.65
629.198	10.62
629.535	10.6
629.871	10.56
630.208	10.56
630.545	10.57
630.881	10.58
631.218	10.57
631.554	10.56
631.89	10.57
632.227	10.55
632.563	10.56
632.899	10.56
633.235	10.56
633.572	10.53
633.908	10.5
634.244	10.44
634.58	10.37
634.916	10.35
635.251	10.31
635.587	10.24
635.923	10.23
636.259	10.19
636.595	10.12
636.93	10.08
637.266	10.06
637.601	10.01
637.937	10
638.272	9.98
638.608	9.88
638.943	9.85
639.278	9.84
639.613	9.75
639.949	9.69
640.284	9.68
640.619	9.68
640.954	9.63
641.289	9.59
641.624	9.59
641.959	9.51
642.294	9.45
642.628	9.41
642.963	9.33
643.298	9.3
643.632	9.33
643.967	9.33
644.302	9.21
644.636	9.24
644.971	9.17
645.305	9.07
645.639	9.11
645.974	9.11
646.308	9.04
646.642	9
646.976	9.02
647.31	8.93
647.644	8.86
647.978	8.89
648.312	8.81
648.646	8.82
648.98	8.83
649.314	8.76
649.647	8.79
649.981	8.8
650.315	8.79
650.648	8.73
650.982	8.71
651.315	8.75
651.649	8.71
651.982	8.73
652.316	8.69
652.649	8.61
652.982	8.58
653.315	8.54
653.648	8.53
653.982	8.53
654.315	8.51
654.648	8.52
654.981	8.43
655.313	8.4
655.646	8.35
655.979	8.39
656.312	8.37
656.644	8.36
656.977	8.35
657.31	8.32
657.642	8.31
657.975	8.3
658.307	8.26
658.64	8.3
658.972	8.33
659.304	8.29
659.636	8.24
659.969	8.22
660.301	8.23
660.633	8.18
660.965	8.16
661.297	8.17
661.629	8.15
661.961	8.11
662.292	8.05
662.624	7.99
662.956	7.99
663.288	7.99
663.619	8
663.951	7.92
664.282	7.92
664.614	7.85
664.945	7.79
665.276	7.77
665.608	7.71
665.939	7.64
666.27	7.57
666.601	7.51
666.933	7.45
667.264	7.44
667.595	7.44
667.926	7.44
668.256	7.47
668.587	7.44
668.918	7.42
669.249	7.44
669.58	7.4
669.91	7.43
670.241	7.48
670.571	7.48
670.902	7.52
671.232	7.48
671.563	7.43
671.893	7.4
672.223	7.41
672.554	7.39
672.884	7.41
673.214	7.43
673.544	7.51
673.874	7.44
674.204	7.49
674.534	7.43
674.864	7.44
675.194	7.41
675.524	7.52
675.853	7.53
676.183	7.5
676.513	7.42
676.842	7.42
677.172	7.36
677.501	7.43
677.831	7.33
678.16	7.33
678.489	7.34
678.819	7.31
679.148	7.19
679.477	7.12
679.806	7.09
680.135	7.11
680.464	7.08
680.793	7.04
681.122	6.94
681.451	6.87
681.78	6.83
682.108	6.75
682.437	6.74
682.766	6.7
683.094	6.73
683.423	6.73
683.751	6.69
684.08	6.58
684.408	6.52
684.737	6.53
685.065	6.54
685.393	6.57
685.721	6.64
686.049	6.66
686.377	6.66
686.705	6.63
687.033	6.66
687.361	6.68
687.689	6.81
688.017	6.93
688.345	6.93
688.673	7.01
689.0	7.01
689.328	6.93
689.655	6.94
689.983	6.98
690.31	6.96
690.638	6.86
690.965	6.77
691.292	6.61
691.62	6.46
691.947	6.42
692.274	6.32
692.601	6.3
692.928	6.25
693.255	6.19
693.582	6.14
693.909	6.09
694.236	6.18
694.562	6.28
694.889	6.43
695.216	6.55
695.542	6.59
695.869	6.64
696.196	6.6
696.522	6.68
696.848	6.7
697.175	6.63
697.501	6.74
697.827	6.69
698.154	6.67
698.48	6.58
698.806	6.51
699.132	6.45
699.458	6.44
699.784	6.43
700.11	6.46
700.435	6.41
700.761	6.42
701.087	6.36
701.413	6.39
701.738	6.35
702.064	6.4
702.389	6.35
702.715	6.37
703.04	6.36
703.366	6.32
703.691	6.27
704.016	6.36
704.341	6.37
704.666	6.33
704.992	6.17
705.317	6.13
705.642	6.09
705.967	6.15
706.291	6.11
706.616	6.19
706.941	6.22
707.266	6.33
707.59	6.32
707.915	6.45
708.24	6.36
708.564	6.43
708.889	6.32
709.213	6.33
709.537	6.26
709.862	6.27
710.186	6.05
710.51	6.1
710.834	6.04
711.158	5.92
711.482	5.75
711.806	5.9
712.13	5.91
712.454	6.02
712.778	6.1
713.102	6.19
713.426	6.15
713.749	6.21
714.073	6.24
714.396	6.14
714.72	6.26
715.043	6.33
715.367	6.35
715.69	6.33
716.013	6.35
716.337	6.21
716.66	6.24
716.983	6.34
717.306	6.38
717.629	6.15
717.952	6.1
718.275	5.96
718.598	5.9
718.921	5.78
719.243	5.86
719.566	5.91
719.889	5.91
720.211	5.65
720.534	5.44
720.856	5.37
721.179	5.56
721.501	5.62
721.823	5.78
722.146	5.84
722.468	5.92
722.79	5.75
723.112	5.6
723.434	5.71
723.756	5.99
724.078	6.07
724.4	6.06
724.722	6.07
725.044	5.99
725.366	5.68
725.687	5.51
726.009	5.47
726.33	5.46
726.652	5.6
726.973	5.36
727.295	5.21
727.616	5.21
727.938	5.3
728.259	5.28
728.58	5.22
728.901	5.3
729.222	5.42
729.543	5.36
729.864	5.35
730.185	5.13
730.506	5.27
730.827	5.27
731.148	5.21
731.468	5.05
731.789	5.07
732.11	5.13
732.43	5.18
732.751	5.33
733.071	5.32
733.392	5.34
733.712	5.54
734.032	5.65
734.352	5.69
734.673	5.79
734.993	5.85
735.313	5.75
735.633	6.19
735.953	6.32
736.273	6.19
736.593	6.28
736.912	6.36
737.232	6.27
737.552	6.2
737.871	6.26
738.191	6.27
738.51	6.44
738.83	6.5
739.149	6.19
739.469	6.25
739.788	6.11
740.107	5.94
740.426	5.85
740.746	5.81
741.065	5.58
741.384	5.29
741.703	5.32
742.022	5.09
742.341	5.01
742.659	4.95
742.978	4.71
743.297	4.99
743.615	5.08
743.934	4.98
744.253	4.97
744.571	5.37
744.89	5.65
745.208	5.53
745.526	5.72
745.845	5.56
746.163	5.43
746.481	5.59
746.799	5.34
747.117	5.31
747.435	5.57
747.753	5.73
748.071	5.65
748.389	5.63
748.706	5.65
749.024	5.62
749.342	5.97
749.659	6.33
749.977	6.22
750.295	6.46
750.612	6.64
750.929	6.57
751.247	6.8
751.564	6.66
751.881	6.59
752.198	6.72
752.516	6.76
752.833	6.52
753.15	6.07
753.467	5.83
753.783	5.56
754.1	5.54
754.417	5.62
754.734	5.09
755.05	5.09
755.367	4.87
755.684	4.83
756.0	4.75
756.317	4.78
756.633	4.92
756.949	5.07
757.266	5.1
757.582	4.83
757.898	4.63
758.214	4.79
758.53	4.81
758.846	4.89
759.162	4.78
759.478	4.48
759.794	4.65
760.11	4.58
760.426	4.51
760.741	4.75
761.057	4.79
761.372	4.59
761.688	4.65
762.003	4.74
762.319	4.94
762.634	4.98
762.949	5.03
763.265	5.01
763.58	5.17
763.895	5.08
764.21	4.91
764.525	4.66
764.84	4.75
765.155	4.61
765.47	4.6
765.785	4.3
766.099	4.47
766.414	4.55
766.729	4.29
767.043	4.23
767.358	4.45
767.672	4.32
767.987	4.67
768.301	4.78
768.615	5.17
768.929	5.07
769.244	5.68
769.558	5.6
769.872	5.61
770.186	5.73
770.5	5.5
770.814	5.25
771.127	5.61
771.441	5.47
771.755	5.52
772.069	4.84
772.382	4.53
772.696	4.21
773.009	4.13
773.323	4.17
773.636	4.16
773.95	4.52
774.263	5.02
774.576	4.63
774.889	5.04
775.202	5.14
775.515	5.47
775.828	5.58
776.141	5.84
776.454	5.87
776.767	5.8
777.08	5.47
777.393	5.06
777.705	4.74
778.018	4.72
778.33	4.49
778.643	4.46
778.955	4.39
779.268	4.49
779.58	4.42
779.892	4.56
780.205	4.64
780.517	5.1
780.829	5.6
781.141	6.03
781.453	6.12
781.765	6.37
782.077	6.06
782.388	6.12
782.7	6.11
783.012	5.98
783.324	5.66
783.635	5.73
783.947	6.08
784.258	5.34
784.57	5.03
784.881	4.78
785.192	3.89
785.504	4.37
785.815	4.28
786.126	4.31
786.437	4.89
786.748	4.6
787.059	4.2
787.37	3.83
787.681	4.43
787.992	4.52
788.302	5.29
788.613	5.74
788.924	5.48
789.234	6.23
789.545	6.6
789.855	5.99
790.166	6.26
790.476	6.96
790.786	7.08
791.096	7.29
791.407	7.47
791.717	6.99
792.027	7.05
792.337	6.99
792.647	6.55
792.957	6.37
793.266	6.1
793.576	5.86
793.886	4.93
794.196	4.67
794.505	8.35
794.815	8.11
795.124	8.6
795.434	8.85
795.743	8.31
796.052	8.16
796.362	8.09
796.671	8.15
796.98	9.03
797.289	9.6
797.598	9.33
797.907	5.57
798.216	5.59
798.525	5.3
798.834	5.38
799.142	6.22
799.451	6.52
799.76	6.78
800.068	7.06
800.377	6.75
800.685	7.2
800.994	7.61
801.302	7.2
801.61	7.26
801.918	7.25
802.227	7.08
802.535	7.07
802.843	6.8
803.151	6.8
803.459	6.64
803.767	6.11
804.074	5.6
804.382	5.82
804.69	7.61
804.998	7.26
805.305	7.3
805.613	7.24
805.92	7.19
806.228	6.73
806.535	5.81
806.842	5.5
807.15	5.67
807.457	5.26
807.764	4.81
808.071	3.2
808.378	3.47
808.685	3.56
808.992	3.54
809.299	3.41
809.605	4.29
809.912	5.51
810.219	5.47
810.525	5.83
810.832	5.81
811.138	6.52
811.445	6.52
811.751	6.32
812.058	5.43
812.364	5.64
812.67	5.44
812.976	4.08
813.282	2.99
813.588	3.11
813.894	3.1
814.2	3.46
814.506	3
814.812	3.08
815.118	3.21
815.423	4.03
815.729	4.51
816.035	4.79
816.34	5.42
816.646	6.28
816.951	6.91
817.256	6.77
817.562	6.7
817.867	6.73
818.172	6.93
818.477	6.89
818.782	6.51
819.087	6.23
819.392	5.94
819.697	5.66
820.002	4.95
820.306	4.6
820.611	4.54
820.916	4.8
821.22	4.84
821.525	4.17
821.829	4.41
822.134	4.67
822.438	4.55
822.742	4.54
823.047	4.84
823.351	5.01
823.655	5.01
823.959	4.9
824.263	4.78
824.567	4.86
824.871	5.16
825.174	5.21
825.478	6.78
825.782	7.16
826.086	7.37
826.389	7.65
826.693	7.82
826.996	7.96
827.3	8.27
827.603	8.45
827.906	8.53
828.209	8.64
828.513	8.83
828.816	6.92
829.119	6.53
829.422	6.66
829.725	6.28
830.028	5.89
830.33	5.48
830.633	5.24
830.936	4.92
831.238	4.87
831.541	4.65
831.844	4.33
832.146	4.44
832.448	4.53
832.751	4.23
833.053	4.5
833.355	5.37
833.657	5.52
833.96	5.75
834.262	6.06
834.564	5.78
834.865	5.74
835.167	7
835.469	6.76
835.771	6.32
836.073	5.79
836.374	5.15
836.676	4.1
836.977	4.43
837.279	4.19
837.58	4.59
837.882	4.57
838.183	4.81
838.484	2.7
838.785	2.89
839.086	3.55
839.387	4.24
839.688	4.95
839.989	6.13
840.29	6.01
840.591	6.53
840.892	6.15
841.192	7.07
841.493	6.75
841.794	8.31
842.094	8.46
842.394	8.05
842.695	8.05
842.995	8.05
843.295	8.05
843.596	8.05
843.896	8.05
844.196	8.05
844.496	8.05
844.796	8.05
845.096	8.05
845.396	8.05
845.695	8.05
845.995	4.11
846.295	5.5
846.594	6.27
846.894	6.43
847.194	4.66
847.493	4.84
847.792	4.49
848.092	4.04
848.391	2.63
848.69	4.85
848.989	4.34
849.288	1.82
849.587	0.98
849.886	1.07
850.185	0.58
850.484	5.05
850.783	4.74
851.081	6.82
851.38	8.34
851.679	10.13
851.977	10.31
852.276	11.05
852.574	15.33
852.872	16.19
853.171	14.37
853.469	12.69
853.767	9.26
854.065	7.13
854.363	4.56
854.661	4.51
854.959	4.67
855.257	1.57
855.555	1.57
855.853	1.57
856.15	1.57
856.448	1.57
856.746	2.9
857.043	3.11
857.341	8.12
857.638	14.06
857.935	13.63
858.233	13.86
858.53	17.2
858.827	19.62
859.124	17.1
859.421	15.89
859.718	16.37
860.015	15.29
860.312	16.42
860.609	13.31
860.905	10.3
861.202	8.99
861.499	8.48
861.795	8.42
862.092	7.68
862.388	5.94
862.684	6.13
862.981	4.91
863.277	1.04
863.573	1.04
863.869	1.52
864.165	1.52
864.461	1.52
864.757	1.52
865.053	1.52
865.349	1.52
865.645	1.52
865.94	1.52
866.236	1.52
866.532	1.52
866.827	0.88
867.123	0.22
867.418	2.18
867.713	1.86
868.009	2.77
868.304	2.46
868.599	2.23
868.894	4.36
869.189	4.73
869.484	7.92
869.779	10.02
870.074	10.37
870.369	11.12
870.663	12.05
870.958	10.67
871.252	11.48
871.547	14
871.842	14.48
872.136	12.25
872.43	13.75
872.725	13.5
873.019	13.36
873.313	13.88
873.607	9.84
873.901	7.93
874.195	10.63
874.489	11.65
874.783	9.87
875.077	9.41
875.37	13.88
875.664	13.2
875.958	13.4
876.251	13.58
876.545	12.5
876.838	13.47
877.132	15.41
877.425	13.96
877.718	10.83
878.011	9.77
878.305	11.8
878.598	8.58
878.891	8
879.184	9.62
879.476	7.35
879.769	5.53
880.062	3.83
880.355	0.68
880.647	2.49
880.94	2.12
881.232	1.1
881.525	1.1
881.817	1.1
882.11	1.1
882.402	1.1
882.694	1.1
882.986	1.1
883.278	1.6
883.57	2.8
883.862	3.03
884.154	3.88
884.446	4.24
884.738	5.59
885.03	6.09
885.321	5.68
885.613	5.85
885.904	6.25
886.196	6.34
886.487	6.79
886.779	6.49
887.07	6.36
887.361	6.39
887.652	7.37
887.943	6.56
888.234	6.65
888.525	6.26
888.816	6.86
889.107	7.44
889.398	8.33
889.689	7.98
889.979	8.66
890.27	9.18
890.56	9.96
890.851	8.96
891.141	11.55
891.432	11.58
891.722	14.26
