Data from thigh2_Reflection__0__12-04-46-856.txt Node

Date: Thu Aug 04 12:04:46 AEST 2022
User: kathy
Spectrometer: JAZA2503
Trigger mode: 0
Integration Time (sec): 2.883200E-1
Scans to average: 10
Electric dark correction enabled: true
Nonlinearity correction enabled: true
Boxcar width: 5
XAxis mode: Wavelengths
Number of Pixels in Spectrum: 2048
>>>>>Begin Spectral Data<<<<<
189.467	-143.53
189.852	-416.1
190.237	-10716.04
190.622	-732.04
191.007	-299.31
191.392	-368.63
191.777	-917.11
192.162	226.12
192.546	16.55
192.931	17.68
193.316	-106.22
193.701	-262.21
194.086	319.95
194.47	241.41
194.855	679.87
195.24	19448.97
195.624	792.07
196.009	-1027.95
196.393	-402.29
196.778	1849.63
197.163	243.69
197.547	94.25
197.931	41.35
198.316	31.19
198.7	32.49
199.085	15.96
199.469	16.5
199.853	15.02
200.237	20.64
200.622	19.31
201.006	11.81
201.39	15.07
201.774	14.1
202.158	18.13
202.542	16.67
202.926	11.65
203.31	7.43
203.694	5.34
204.078	1.81
204.462	-0.2
204.846	10.78
205.23	10.54
205.614	7.43
205.998	2.48
206.381	4.29
206.765	6.6
207.149	4.44
207.532	15.26
207.916	14.53
208.3	19.84
208.683	18.72
209.067	11.43
209.45	20.86
209.834	20.02
210.217	26.78
210.601	26.73
210.984	26.73
211.367	33.56
211.751	31.72
212.134	30.85
212.517	25.83
212.901	28.72
213.284	29.2
213.667	26.04
214.05	28.4
214.433	26.12
214.816	24.85
215.199	27.32
215.582	21.46
215.965	18.8
216.348	19.23
216.731	23.72
217.114	21.7
217.497	15.5
217.88	13.51
218.262	10.22
218.645	6.79
219.028	6.45
219.411	3.34
219.793	4.47
220.176	4.57
220.559	2.94
220.941	-0.02
221.324	0.58
221.706	5.22
222.089	6.46
222.471	7.79
222.853	6.62
223.236	9.14
223.618	7.12
224	8.49
224.383	6.23
224.765	7.98
225.147	7.75
225.529	7.91
225.912	5.89
226.294	4.79
226.676	3.82
227.058	3.81
227.44	3
227.822	3.19
228.204	2.71
228.586	3.07
228.968	2.69
229.349	2.68
229.731	2.54
230.113	2.28
230.495	2.51
230.877	2.51
231.258	2.68
231.64	2.46
232.022	2.21
232.403	1.86
232.785	2.19
233.166	2.15
233.548	2.35
233.929	2.2
234.311	2.43
234.692	1.7
235.073	1.76
235.455	1.87
235.836	1.83
236.217	2.32
236.599	2.23
236.98	1.89
237.361	1.59
237.742	1.5
238.123	1.31
238.504	1.49
238.885	1.58
239.266	1.27
239.647	1.16
240.028	1.41
240.409	1.49
240.79	1.6
241.171	1.48
241.552	1.54
241.933	1.56
242.313	1.59
242.694	1.64
243.075	1.97
243.456	2
243.836	2.07
244.217	1.94
244.597	1.85
244.978	1.89
245.358	1.97
245.739	1.99
246.119	1.79
246.5	1.84
246.88	1.77
247.26	1.54
247.641	1.47
248.021	1.42
248.401	1.41
248.781	1.38
249.162	1.37
249.542	1.3
249.922	1.3
250.302	1.39
250.682	1.34
251.062	1.34
251.442	1.36
251.822	1.48
252.202	1.39
252.582	1.43
252.961	1.53
253.341	1.55
253.721	1.53
254.101	1.43
254.48	1.44
254.86	1.26
255.24	1.22
255.619	1.35
255.999	1.17
256.378	1.2
256.758	1.23
257.137	1.02
257.517	1.05
257.896	1.14
258.276	1.15
258.655	1.07
259.034	1.02
259.414	0.95
259.793	0.82
260.172	0.91
260.551	0.84
260.93	0.79
261.309	0.76
261.688	0.72
262.068	0.67
262.447	0.7
262.825	0.62
263.204	0.6
263.583	0.62
263.962	0.76
264.341	0.72
264.72	0.82
265.099	0.82
265.477	0.91
265.856	0.79
266.235	0.81
266.613	0.71
266.992	0.76
267.371	0.9
267.749	1.04
268.128	1
268.506	0.94
268.884	0.89
269.263	0.88
269.641	0.82
270.02	0.9
270.398	0.89
270.776	0.96
271.154	1.02
271.533	1.01
271.911	0.88
272.289	0.79
272.667	0.85
273.045	0.86
273.423	0.88
273.801	0.89
274.179	0.83
274.557	0.8
274.935	0.78
275.313	0.69
275.69	0.63
276.068	0.64
276.446	0.67
276.824	0.64
277.201	0.63
277.579	0.59
277.957	0.6
278.334	0.65
278.712	0.65
279.089	0.63
279.467	0.75
279.844	0.83
280.222	0.82
280.599	0.89
280.976	0.89
281.354	0.85
281.731	0.89
282.108	0.95
282.485	0.95
282.863	0.96
283.24	0.95
283.617	0.92
283.994	0.87
284.371	0.88
284.748	0.85
285.125	0.85
285.502	0.9
285.879	0.89
286.256	0.86
286.633	0.89
287.009	0.94
287.386	0.98
287.763	1.03
288.139	1.09
288.516	1.16
288.893	1.16
289.269	1.17
289.646	1.22
290.022	1.25
290.399	1.24
290.775	1.28
291.152	1.26
291.528	1.27
291.904	1.25
292.281	1.23
292.657	1.21
293.033	1.28
293.41	1.33
293.786	1.34
294.162	1.36
294.538	1.45
294.914	1.51
295.29	1.55
295.666	1.59
296.042	1.61
296.418	1.67
296.794	1.74
297.17	1.77
297.546	1.8
297.921	1.82
298.297	1.86
298.673	1.87
299.048	1.88
299.424	1.92
299.8	1.95
300.175	2.04
300.551	2.07
300.926	2.11
301.302	2.12
301.677	2.16
302.053	2.22
302.428	2.22
302.803	2.25
303.179	2.29
303.554	2.3
303.929	2.34
304.304	2.36
304.68	2.37
305.055	2.38
305.43	2.38
305.805	2.35
306.18	2.36
306.555	2.44
306.93	2.47
307.305	2.5
307.679	2.53
308.054	2.5
308.429	2.47
308.804	2.51
309.179	2.54
309.553	2.58
309.928	2.61
310.303	2.67
310.677	2.66
311.052	2.68
311.426	2.67
311.801	2.68
312.175	2.73
312.55	2.77
312.924	2.78
313.298	2.78
313.673	2.82
314.047	2.87
314.421	2.83
314.795	2.85
315.17	2.85
315.544	2.89
315.918	2.92
316.292	2.93
316.666	2.95
317.04	2.97
317.414	3.05
317.788	3.06
318.162	3.06
318.535	3.12
318.909	3.2
319.283	3.26
319.657	3.29
320.03	3.34
320.404	3.44
320.778	3.54
321.151	3.71
321.525	3.94
321.898	4.15
322.272	4.42
322.645	4.67
323.019	4.91
323.392	5.14
323.765	5.48
324.139	5.83
324.512	6.16
324.885	6.58
325.258	6.95
325.632	7.23
326.005	7.5
326.378	7.73
326.751	7.94
327.124	8.07
327.497	8.16
327.87	8.2
328.243	8.24
328.616	8.33
328.988	8.35
329.361	8.37
329.734	8.4
330.107	8.41
330.479	8.37
330.852	8.36
331.225	8.33
331.597	8.27
331.97	8.23
332.342	8.14
332.715	8.09
333.087	7.99
333.46	7.9
333.832	7.84
334.204	7.8
334.577	7.76
334.949	7.74
335.321	7.73
335.693	7.7
336.065	7.61
336.438	7.54
336.81	7.46
337.182	7.43
337.554	7.37
337.926	7.3
338.298	7.22
338.669	7.13
339.041	7.09
339.413	7.07
339.785	7.06
340.157	7
340.528	6.96
340.9	6.91
341.272	6.87
341.643	6.8
342.015	6.81
342.386	6.89
342.758	6.95
343.129	6.99
343.501	7.07
343.872	7.14
344.243	7.13
344.615	7.1
344.986	7.13
345.357	7.13
345.728	7.12
346.099	7.11
346.471	7.11
346.842	7.09
347.213	7.06
347.584	7.04
347.955	7.04
348.326	7
348.697	6.96
349.067	6.97
349.438	6.98
349.809	7.01
350.18	7.06
350.55	7.09
350.921	7.13
351.292	7.18
351.662	7.2
352.033	7.22
352.403	7.24
352.774	7.28
353.144	7.26
353.515	7.26
353.885	7.24
354.255	7.22
354.626	7.22
354.996	7.2
355.366	7.17
355.736	7.18
356.107	7.16
356.477	7.17
356.847	7.15
357.217	7.19
357.587	7.2
357.957	7.21
358.327	7.21
358.697	7.23
359.066	7.25
359.436	7.25
359.806	7.25
360.176	7.29
360.546	7.27
360.915	7.27
361.285	7.26
361.654	7.26
362.024	7.26
362.393	7.27
362.763	7.26
363.132	7.23
363.502	7.24
363.871	7.26
364.24	7.24
364.61	7.29
364.979	7.31
365.348	7.32
365.717	7.36
366.087	7.37
366.456	7.39
366.825	7.42
367.194	7.46
367.563	7.49
367.932	7.51
368.301	7.53
368.669	7.51
369.038	7.49
369.407	7.51
369.776	7.49
370.145	7.5
370.513	7.49
370.882	7.47
371.25	7.45
371.619	7.45
371.988	7.45
372.356	7.47
372.724	7.47
373.093	7.5
373.461	7.5
373.83	7.49
374.198	7.5
374.566	7.52
374.934	7.52
375.303	7.52
375.671	7.49
376.039	7.49
376.407	7.49
376.775	7.5
377.143	7.5
377.511	7.51
377.879	7.54
378.247	7.55
378.615	7.55
378.982	7.59
379.35	7.61
379.718	7.64
380.086	7.63
380.453	7.62
380.821	7.62
381.188	7.61
381.556	7.59
381.923	7.57
382.291	7.55
382.658	7.51
383.026	7.49
383.393	7.49
383.76	7.49
384.128	7.48
384.495	7.47
384.862	7.48
385.229	7.49
385.596	7.5
385.963	7.52
386.33	7.52
386.697	7.53
387.064	7.54
387.431	7.54
387.798	7.55
388.165	7.59
388.532	7.6
388.899	7.58
389.265	7.57
389.632	7.58
389.999	7.57
390.365	7.57
390.732	7.58
391.098	7.56
391.465	7.56
391.831	7.56
392.198	7.54
392.564	7.55
392.93	7.57
393.297	7.58
393.663	7.57
394.029	7.58
394.395	7.58
394.762	7.59
395.128	7.62
395.494	7.62
395.86	7.64
396.226	7.66
396.592	7.67
396.958	7.68
397.323	7.7
397.689	7.73
398.055	7.74
398.421	7.77
398.787	7.78
399.152	7.79
399.518	7.81
399.883	7.82
400.249	7.84
400.615	7.84
400.98	7.83
401.345	7.84
401.711	7.85
402.076	7.83
402.442	7.82
402.807	7.82
403.172	7.82
403.537	7.82
403.902	7.82
404.268	7.81
404.633	7.82
404.998	7.84
405.363	7.85
405.728	7.84
406.093	7.86
406.457	7.86
406.822	7.88
407.187	7.91
407.552	7.91
407.917	7.91
408.281	7.92
408.646	7.93
409.011	7.92
409.375	7.94
409.74	7.96
410.104	7.96
410.469	7.97
410.833	7.97
411.197	7.95
411.562	7.97
411.926	7.97
412.29	7.98
412.655	7.98
413.019	7.99
413.383	7.98
413.747	7.98
414.111	8.02
414.475	8.03
414.839	8.05
415.203	8.07
415.567	8.1
415.931	8.12
416.295	8.13
416.658	8.12
417.022	8.12
417.386	8.13
417.749	8.13
418.113	8.14
418.477	8.15
418.84	8.15
419.204	8.17
419.567	8.18
419.931	8.18
420.294	8.2
420.657	8.23
421.021	8.25
421.384	8.26
421.747	8.29
422.11	8.31
422.473	8.33
422.836	8.35
423.199	8.35
423.562	8.35
423.925	8.37
424.288	8.36
424.651	8.38
425.014	8.39
425.377	8.42
425.74	8.43
426.102	8.43
426.465	8.46
426.828	8.49
427.19	8.52
427.553	8.55
427.916	8.57
428.278	8.61
428.641	8.61
429.003	8.64
429.365	8.64
429.728	8.66
430.09	8.66
430.452	8.65
430.814	8.64
431.177	8.63
431.539	8.64
431.901	8.66
432.263	8.69
432.625	8.71
432.987	8.74
433.349	8.77
433.711	8.8
434.072	8.85
434.434	8.88
434.796	8.93
435.158	8.99
435.519	9.03
435.881	9.06
436.243	9.07
436.604	9.09
436.966	9.11
437.327	9.12
437.689	9.14
438.05	9.15
438.411	9.19
438.773	9.21
439.134	9.23
439.495	9.25
439.856	9.27
440.218	9.3
440.579	9.35
440.94	9.37
441.301	9.41
441.662	9.43
442.023	9.46
442.384	9.47
442.745	9.5
443.105	9.49
443.466	9.5
443.827	9.52
444.188	9.53
444.548	9.53
444.909	9.55
445.269	9.54
445.63	9.57
445.99	9.58
446.351	9.63
446.711	9.63
447.072	9.68
447.432	9.71
447.792	9.74
448.153	9.76
448.513	9.78
448.873	9.79
449.233	9.8
449.593	9.8
449.953	9.82
450.313	9.82
450.673	9.84
451.033	9.83
451.393	9.85
451.753	9.83
452.113	10.41
452.472	10.4
452.832	10.38
453.192	10.37
453.551	10.36
453.911	10.35
454.271	10.32
454.63	10.32
454.989	10.33
455.349	10.34
455.708	10.36
456.068	10.07
456.427	10.09
456.786	10.12
457.145	10.15
457.505	10.17
457.864	10.21
458.223	10.27
458.582	10.3
458.941	10.34
459.3	10.37
459.659	10.39
460.018	10.42
460.376	10.45
460.735	10.46
461.094	10.48
461.453	10.49
461.811	10.49
462.17	10.48
462.529	10.49
462.887	10.47
463.246	10.49
463.604	10.49
463.963	10.5
464.321	10.59
464.679	10.6
465.038	10.61
465.396	10.63
465.754	10.64
466.112	10.67
466.47	10.69
466.828	10.72
467.186	10.72
467.544	10.73
467.902	10.72
468.26	10.62
468.618	10.63
468.976	10.63
469.334	10.64
469.692	10.62
470.049	10.6
470.407	10.57
470.765	10.55
471.122	10.56
471.48	10.56
471.837	10.58
472.195	10.59
472.552	10.6
472.909	10.59
473.267	10.6
473.624	10.63
473.981	10.62
474.338	10.64
474.696	10.65
475.053	10.63
475.41	10.63
475.767	10.63
476.124	10.61
476.481	10.6
476.838	10.62
477.194	10.61
477.551	10.61
477.908	10.62
478.265	10.61
478.621	10.6
478.978	10.61
479.335	10.62
479.691	10.63
480.048	10.63
480.404	10.63
480.761	10.64
481.117	10.64
481.473	10.62
481.83	10.63
482.186	10.63
482.542	10.64
482.898	10.63
483.255	10.62
483.611	10.62
483.967	10.63
484.323	10.65
484.679	10.64
485.035	10.65
485.39	10.65
485.746	10.64
486.102	10.64
486.458	10.64
486.814	10.64
487.169	10.65
487.525	10.63
487.88	10.6
488.236	10.59
488.591	10.58
488.947	10.56
489.302	10.56
489.658	10.55
490.013	10.55
490.368	10.53
490.723	10.52
491.079	10.5
491.434	10.5
491.789	10.51
492.144	10.5
492.499	10.5
492.854	10.51
493.209	10.51
493.564	10.51
493.919	10.51
494.273	10.52
494.628	10.49
494.983	10.48
495.338	10.47
495.692	10.47
496.047	10.45
496.401	10.42
496.756	10.4
497.11	10.36
497.465	10.34
497.819	10.32
498.173	10.31
498.528	10.31
498.882	10.32
499.236	10.32
499.59	10.32
499.944	10.33
500.298	10.35
500.652	10.36
501.006	10.38
501.36	10.38
501.714	10.37
502.068	10.37
502.422	10.37
502.776	10.36
503.129	10.36
503.483	10.35
503.837	10.35
504.19	10.34
504.544	10.33
504.897	10.32
505.251	10.3
505.604	10.27
505.958	10.25
506.311	10.22
506.664	10.2
507.017	10.17
507.371	10.13
507.724	10.1
508.077	10.05
508.43	10.02
508.783	9.98
509.136	9.96
509.489	9.94
509.842	9.92
510.195	9.89
510.547	9.87
510.9	9.84
511.253	9.81
511.606	9.78
511.958	9.75
512.311	9.71
512.663	9.68
513.016	9.66
513.368	9.63
513.721	9.61
514.073	9.58
514.425	9.56
514.778	9.54
515.13	9.51
515.482	9.48
515.834	9.47
516.186	9.45
516.538	9.44
516.89	9.42
517.242	9.42
517.594	9.39
517.946	9.38
518.298	9.36
518.65	9.34
519.001	9.32
519.353	9.29
519.705	9.26
520.056	9.22
520.408	9.16
520.759	9.11
521.111	9.08
521.462	9.06
521.814	9.02
522.165	8.97
522.516	8.94
522.868	8.9
523.219	8.85
523.57	8.82
523.921	8.78
524.272	8.74
524.623	8.71
524.974	8.64
525.325	8.59
525.676	8.53
526.027	8.5
526.378	8.46
526.728	8.42
527.079	8.4
527.43	8.37
527.78	8.34
528.131	8.3
528.481	8.26
528.832	8.23
529.182	8.18
529.533	8.15
529.883	8.13
530.233	8.07
530.584	8.03
530.934	8
531.284	7.95
531.634	7.9
531.984	7.88
532.334	7.85
532.684	7.81
533.034	7.8
533.384	7.76
533.734	7.73
534.084	7.72
534.434	7.69
534.783	7.68
535.133	7.62
535.483	7.6
535.832	7.58
536.182	7.53
536.531	7.5
536.881	7.47
537.23	7.44
537.58	7.39
537.929	7.33
538.278	8.35
538.628	8.3
538.977	8.26
539.326	8.2
539.675	8.14
540.024	8.09
540.373	8.04
540.722	7.98
541.071	7.92
541.42	7.87
541.769	7.85
542.117	6.75
542.466	6.68
542.815	6.66
543.163	6.64
543.512	6.63
543.861	6.64
544.209	6.61
544.558	6.59
544.906	6.56
545.254	6.54
545.603	6.53
545.951	6.5
546.299	6.53
546.647	6.54
546.996	6.51
547.344	6.48
547.692	6.44
548.04	6.42
548.388	6.4
548.736	6.39
549.083	6.36
549.431	6.33
549.779	6.3
550.127	6.23
550.475	6.16
550.822	6.12
551.17	6.07
551.517	6.06
551.865	6.02
552.212	6.03
552.56	6.03
552.907	6
553.254	5.97
553.602	5.95
553.949	5.94
554.296	5.92
554.643	5.91
554.99	5.89
555.337	5.85
555.684	5.81
556.031	5.74
556.378	5.66
556.725	5.65
557.072	5.63
557.419	5.6
557.765	5.57
558.112	5.53
558.459	5.49
558.805	5.48
559.152	5.47
559.498	5.44
559.845	5.44
560.191	5.44
560.538	5.39
560.884	5.35
561.23	5.31
561.576	5.28
561.923	5.25
562.269	5.22
562.615	5.18
562.961	5.16
563.307	5.17
563.653	5.17
563.999	5.12
564.344	5.1
564.69	5.11
565.036	5.13
565.382	5.14
565.727	5.14
566.073	5.1
566.419	5.06
566.764	5.04
567.11	5.01
567.455	4.95
567.8	4.93
568.146	4.9
568.491	4.86
568.836	4.81
569.181	4.79
569.527	4.78
569.872	4.76
570.217	4.76
570.562	4.75
570.907	4.74
571.252	4.74
571.597	4.74
571.941	4.72
572.286	4.7
572.631	4.7
572.976	4.69
573.32	4.68
573.665	4.67
574.009	4.66
574.354	4.62
574.698	4.62
575.043	4.63
575.387	4.64
575.731	4.59
576.076	4.59
576.42	4.58
576.764	4.56
577.108	4.55
577.452	4.52
577.796	4.52
578.14	4.5
578.484	4.49
578.828	4.5
579.172	4.5
579.516	4.48
579.86	4.47
580.203	4.46
580.547	4.44
580.891	4.44
581.234	4.41
581.578	4.41
581.921	4.4
582.264	4.4
582.608	4.39
582.951	4.39
583.294	4.39
583.638	4.38
583.981	4.35
584.324	4.34
584.667	4.33
585.01	4.32
585.353	4.31
585.696	4.31
586.039	4.31
586.382	4.29
586.725	4.26
587.067	4.25
587.41	4.25
587.753	4.24
588.095	4.23
588.438	4.21
588.781	4.21
589.123	4.21
589.465	4.2
589.808	4.2
590.15	4.17
590.492	4.15
590.835	4.13
591.177	4.12
591.519	4.11
591.861	4.11
592.203	4.12
592.545	4.12
592.887	4.13
593.229	4.1
593.571	4.09
593.913	4.09
594.254	4.09
594.596	4.09
594.938	4.08
595.279	4.08
595.621	4.1
595.963	4.11
596.304	4.13
596.645	4.12
596.987	4.11
597.328	4.11
597.669	4.1
598.011	4.1
598.352	4.1
598.693	4.1
599.034	4.09
599.375	4.08
599.716	4.07
600.057	4.06
600.398	4.04
600.739	4.05
601.08	4.06
601.42	4.05
601.761	4.05
602.102	4.04
602.442	4.04
602.783	4.03
603.123	4
603.464	3.98
603.804	3.96
604.145	3.96
604.485	3.96
604.825	3.96
605.166	3.96
605.506	3.97
605.846	3.99
606.186	3.99
606.526	4
606.866	4.01
607.206	4.02
607.546	4.01
607.886	4
608.225	3.97
608.565	3.96
608.905	3.96
609.245	3.97
609.584	3.95
609.924	3.95
610.263	3.97
610.603	3.98
610.942	3.98
611.281	3.97
611.621	3.96
611.96	3.94
612.299	3.95
612.638	3.95
612.978	3.94
613.317	3.92
613.656	3.9
613.995	3.88
614.334	3.85
614.672	3.83
615.011	3.83
615.35	3.83
615.689	3.83
616.027	3.83
616.366	3.81
616.705	3.79
617.043	3.79
617.382	3.8
617.72	3.76
618.059	3.73
618.397	3.7
618.735	3.7
619.073	3.7
619.412	3.69
619.75	3.67
620.088	3.64
620.426	3.62
620.764	3.6
621.102	3.59
621.44	3.59
621.778	3.59
622.115	3.59
622.453	3.58
622.791	3.57
623.129	3.57
623.466	3.58
623.804	3.57
624.141	3.55
624.479	3.56
624.816	3.56
625.153	3.56
625.491	3.55
625.828	3.56
626.165	3.57
626.502	3.54
626.84	3.53
627.177	3.54
627.514	3.53
627.851	3.56
628.188	3.53
628.524	3.49
628.861	3.48
629.198	3.49
629.535	3.46
629.871	3.48
630.208	3.49
630.545	3.53
630.881	3.53
631.218	3.56
631.554	3.54
631.89	3.56
632.227	3.61
632.563	3.61
632.899	3.6
633.235	3.61
633.572	3.62
633.908	3.62
634.244	3.61
634.58	3.58
634.916	3.58
635.251	3.55
635.587	3.53
635.923	3.51
636.259	3.49
636.595	3.49
636.93	3.5
637.266	3.49
637.601	3.46
637.937	3.45
638.272	3.49
638.608	3.49
638.943	3.52
639.278	3.52
639.613	3.52
639.949	3.5
640.284	3.49
640.619	3.45
640.954	3.44
641.289	3.44
641.624	3.46
641.959	3.36
642.294	3.31
642.628	3.33
642.963	3.32
643.298	3.27
643.632	3.38
643.967	3.38
644.302	3.37
644.636	3.36
644.971	3.35
645.305	3.31
645.639	3.38
645.974	3.4
646.308	3.35
646.642	3.37
646.976	3.37
647.31	3.29
647.644	3.28
647.978	3.31
648.312	3.29
648.646	3.33
648.98	3.36
649.314	3.34
649.647	3.31
649.981	3.3
650.315	3.25
650.648	3.24
650.982	3.19
651.315	3.21
651.649	3.18
651.982	3.15
652.316	3.08
652.649	3.02
652.982	3.03
653.315	3.03
653.648	3.05
653.982	3.11
654.315	3.11
654.648	3.11
654.981	3.09
655.313	3.14
655.646	3.13
655.979	3.2
656.312	3.21
656.644	3.19
656.977	3.17
657.31	3.17
657.642	3.12
657.975	3.12
658.307	3.14
658.64	3.17
658.972	3.13
659.304	3.14
659.636	3.11
659.969	3.13
660.301	3.1
660.633	3.09
660.965	3.09
661.297	3.13
661.629	3.15
661.961	3.13
662.292	3.09
662.624	3.07
662.956	3.05
663.288	3.05
663.619	3.05
663.951	2.99
664.282	3.03
664.614	2.98
664.945	2.92
665.276	2.89
665.608	2.85
665.939	2.85
666.27	2.81
666.601	2.79
666.933	2.76
667.264	2.72
667.595	2.76
667.926	2.75
668.256	2.74
668.587	2.73
668.918	2.77
669.249	2.83
669.58	2.85
669.91	2.86
670.241	2.92
670.571	2.98
670.902	3.09
671.232	3.02
671.563	3.03
671.893	3.03
672.223	3.03
672.554	3.07
672.884	3.11
673.214	3.09
673.544	3.18
673.874	3.13
674.204	3.09
674.534	2.96
674.864	3.09
675.194	3.03
675.524	3.12
675.853	3.11
676.183	2.99
676.513	2.94
676.842	2.92
677.172	2.93
677.501	2.99
677.831	2.99
678.16	3.06
678.489	3.03
678.819	3.06
679.148	2.98
679.477	2.99
679.806	3.07
680.135	2.99
680.464	2.93
680.793	2.86
681.122	2.78
681.451	2.68
681.78	2.63
682.108	2.58
682.437	2.57
682.766	2.52
683.094	2.52
683.423	2.43
683.751	2.49
684.08	2.46
684.408	2.42
684.737	2.44
685.065	2.53
685.393	2.55
685.721	2.58
686.049	2.6
686.377	2.68
686.705	2.68
687.033	2.76
687.361	2.78
687.689	2.95
688.017	3.1
688.345	3.11
688.673	3.06
689.0	3.09
689.328	3.04
689.655	3.13
689.983	3.19
690.31	3.24
690.638	3.19
690.965	3.14
691.292	3
691.62	2.88
691.947	2.85
692.274	2.87
692.601	2.75
692.928	2.78
693.255	2.64
693.582	2.49
693.909	2.35
694.236	2.4
694.562	2.41
694.889	2.51
695.216	2.6
695.542	2.62
695.869	2.66
696.196	2.78
696.522	2.74
696.848	2.78
697.175	2.87
697.501	3
697.827	2.93
698.154	2.91
698.48	2.86
698.806	2.79
699.132	2.79
699.458	2.84
699.784	2.82
700.11	2.87
700.435	2.89
700.761	2.84
701.087	2.77
701.413	2.81
701.738	2.84
702.064	2.8
702.389	2.74
702.715	2.71
703.04	2.61
703.366	2.57
703.691	2.62
704.016	2.63
704.341	2.67
704.666	2.72
704.992	2.76
705.317	2.77
705.642	2.76
705.967	2.88
706.291	2.93
706.616	3
706.941	3.03
707.266	3.04
707.59	3.11
707.915	3.17
708.24	3.09
708.564	3.05
708.889	3.05
709.213	3.15
709.537	3.08
709.862	3.05
710.186	2.93
710.51	2.99
710.834	2.92
711.158	2.85
711.482	2.71
711.806	2.84
712.13	2.76
712.454	2.7
712.778	2.71
713.102	2.61
713.426	2.53
713.749	2.57
714.073	2.54
714.396	2.44
714.72	2.39
715.043	2.43
715.367	2.43
715.69	2.46
716.013	2.48
716.337	2.33
716.66	2.46
716.983	2.72
717.306	2.71
717.629	2.51
717.952	2.62
718.275	2.61
718.598	2.51
718.921	2.34
719.243	2.41
719.566	2.57
719.889	2.86
720.211	2.79
720.534	2.61
720.856	2.6
721.179	2.82
721.501	2.69
721.823	2.78
722.146	3.01
722.468	3.22
722.79	3.17
723.112	3.04
723.434	3
723.756	3.18
724.078	3.21
724.4	3.18
724.722	3.21
725.044	3.35
725.366	3.17
725.687	3.05
726.009	2.94
726.33	2.99
726.652	3.14
726.973	2.94
727.295	2.82
727.616	2.67
727.938	2.81
728.259	2.81
728.58	2.68
728.901	2.62
729.222	2.66
729.543	2.69
729.864	2.61
730.185	2.33
730.506	2.36
730.827	2.26
731.148	2.34
731.468	2.24
731.789	2.17
732.11	2.2
732.43	2.23
732.751	2.2
733.071	2.09
733.392	2.21
733.712	2.3
734.032	2.48
734.352	2.63
734.673	2.65
734.993	2.68
735.313	2.65
735.633	3.09
735.953	3.25
736.273	3.15
736.593	3.33
736.912	3.05
737.232	3.06
737.552	2.97
737.871	2.86
738.191	2.91
738.51	2.97
738.83	3.35
739.149	3.1
739.469	3.21
739.788	3.36
740.107	3.22
740.426	3.38
740.746	3.32
741.065	3.18
741.384	3.3
741.703	3.22
742.022	3.13
742.341	2.95
742.659	2.9
742.978	2.68
743.297	2.76
743.615	2.78
743.934	2.71
744.253	2.85
744.571	3.1
744.89	3.19
745.208	3.28
745.526	3.28
745.845	2.95
746.163	2.82
746.481	3.16
746.799	3.05
747.117	3.22
747.435	3.52
747.753	3.68
748.071	3.48
748.389	3.25
748.706	3.32
749.024	3.25
749.342	3.56
749.659	3.87
749.977	3.49
750.295	3.56
750.612	3.41
750.929	3.4
751.247	3.51
751.564	3.62
751.881	3.85
752.198	3.99
752.516	4.24
752.833	4.1
753.15	3.81
753.467	3.7
753.783	3.51
754.1	3.66
754.417	3.48
754.734	3.06
755.05	3.06
755.367	2.85
755.684	2.87
756.0	2.76
756.317	2.75
756.633	2.85
756.949	3.35
757.266	3.63
757.582	3.49
757.898	3.43
758.214	3.61
758.53	3.56
758.846	3.61
759.162	3.27
759.478	3.06
759.794	3.22
760.11	3.24
760.426	2.86
760.741	2.83
761.057	2.73
761.372	2.77
761.688	2.88
762.003	2.88
762.319	2.84
762.634	2.88
762.949	2.91
763.265	2.87
763.58	2.79
763.895	2.72
764.21	2.64
764.525	2.6
764.84	2.49
765.155	2.34
765.47	2.26
765.785	2.2
766.099	2.35
766.414	2.35
766.729	2.05
767.043	2.26
767.358	2.4
767.672	2.23
767.987	2.38
768.301	2.68
768.615	3.09
768.929	3.05
769.244	3.05
769.558	3.1
769.872	3.1
770.186	3.33
770.5	2.93
770.814	2.76
771.127	3.24
771.441	3.26
771.755	3.13
772.069	2.54
772.382	2.65
772.696	3.01
773.009	2.79
773.323	2.91
773.636	3.16
773.95	3.43
774.263	3.93
774.576	3.37
774.889	3.58
775.202	3.6
775.515	3.88
775.828	3.79
776.141	4.01
776.454	4.14
776.767	4.33
777.08	4.22
777.393	4.21
777.705	4.05
778.018	3.96
778.33	3.71
778.643	3.72
778.955	3.6
779.268	3.62
779.58	3.1
779.892	3.28
780.205	3.04
780.517	2.84
780.829	2.83
781.141	3.3
781.453	3.51
781.765	3.65
782.077	3.34
782.388	3.36
782.7	3.09
783.012	3.41
783.324	3.16
783.635	3.05
783.947	3.6
784.258	2.99
784.57	2.37
784.881	2.47
785.192	1.7
785.504	1.94
785.815	1.82
786.126	2.42
786.437	2.2
786.748	2.19
787.059	2.63
787.37	2.02
787.681	2.84
787.992	3.3
788.302	3.71
788.613	4.73
788.924	4.97
789.234	5.57
789.545	5.67
789.855	5.62
790.166	5.38
790.476	5.4
790.786	5.66
791.096	5.5
791.407	5.42
791.717	4.83
792.027	4.72
792.337	4.47
792.647	4.36
792.957	4.38
793.266	4.4
793.576	4.44
793.886	4.04
794.196	3.97
794.505	7.66
794.815	7.66
795.124	8.12
795.434	8.24
795.743	7.79
796.052	7.29
796.362	6.65
796.671	6.75
796.98	7.12
797.289	7.18
797.598	6.8
797.907	3.38
798.216	3.38
798.525	3.51
798.834	3.4
799.142	3.86
799.451	4.2
799.76	4.66
800.068	4.57
800.377	4.78
800.685	5.64
800.994	6.03
801.302	5.94
801.61	5.74
801.918	5.54
802.227	5.57
802.535	5.9
802.843	5.68
803.151	5.51
803.459	5.87
803.767	5.97
804.074	4.79
804.382	4.94
804.69	6.41
804.998	6.39
805.305	6.39
805.613	6.18
805.92	5.92
806.228	6.09
806.535	5.55
806.842	5.25
807.15	4.5
807.457	5.07
807.764	4.52
808.071	3.01
808.378	3.59
808.685	3.9
808.992	3.62
809.299	3.39
809.605	3.17
809.912	4.04
810.219	4.13
810.525	4.77
810.832	4.09
811.138	4.89
811.445	5.06
811.751	4.53
812.058	3.8
812.364	4.38
812.67	4.51
812.976	4.21
813.282	3.93
813.588	3.46
813.894	3.45
814.2	4.19
814.506	3.96
814.812	3.44
815.118	3.38
815.423	3.4
815.729	3.64
816.035	3.83
816.34	4.26
816.646	4.61
816.951	5.09
817.256	4.76
817.562	5.05
817.867	4.48
818.172	4.81
818.477	4.47
818.782	4.58
819.087	4.15
819.392	3.71
819.697	3.52
820.002	3.08
820.306	3.37
820.611	3.52
820.916	3.41
821.22	4.04
821.525	3.64
821.829	3.9
822.134	3.97
822.438	3.74
822.742	3.85
823.047	3.74
823.351	3.54
823.655	3.59
823.959	3.3
824.263	3.07
824.567	3
824.871	3.14
825.174	3.2
825.478	4.54
825.782	4.64
826.086	4.8
826.389	5.13
826.693	5.44
826.996	5.42
827.3	5.81
827.603	6.16
827.906	6.23
828.209	6.65
828.513	6.75
828.816	5.11
829.119	5.24
829.422	5.53
829.725	5.34
830.028	5.11
830.33	4.74
830.633	4.89
830.936	4.63
831.238	4.51
831.541	3.69
831.844	3.56
832.146	3.58
832.448	3.57
832.751	2.73
833.053	2.79
833.355	3.53
833.657	3.59
833.96	3.39
834.262	3.79
834.564	3.69
834.865	3.73
835.167	4.61
835.469	4.63
835.771	4.19
836.073	3.59
836.374	3.25
836.676	2.75
836.977	3.55
837.279	3.53
837.58	3.62
837.882	4.12
838.183	4.27
838.484	2.6
838.785	2.24
839.086	2.78
839.387	3.87
839.688	4.67
839.989	5.1
840.29	4.77
840.591	5.3
840.892	4.81
841.192	5.07
841.493	5.15
841.794	6.66
842.094	6.49
842.394	6.17
842.695	15.57
842.995	15.92
843.295	17.24
843.596	18.22
843.896	17.82
844.196	19.09
844.496	19.07
844.796	20.6
845.096	20.31
845.396	20.93
845.695	22.5
845.995	10.99
846.295	11.29
846.594	10.38
846.894	10.25
847.194	9.53
847.493	9.28
847.792	9.45
848.092	7.97
848.391	6.05
848.69	8.69
848.989	7.71
849.288	4.43
849.587	4.57
849.886	5.12
850.185	5.91
850.484	8.89
850.783	9.46
851.081	10.03
851.38	12.41
851.679	15.63
851.977	14.48
852.276	14.57
852.574	16.46
852.872	15.93
853.171	14.74
853.469	11.9
853.767	10.47
854.065	9.68
854.363	7.66
854.661	8.46
854.959	6.8
855.257	4.55
855.555	3.73
855.853	3.52
856.15	3.77
856.448	7.14
856.746	9.77
857.043	9.83
857.341	13.98
857.638	21.53
857.935	19.88
858.233	19.99
858.53	22.13
858.827	24.59
859.124	22.59
859.421	20.76
859.718	19.63
860.015	19.8
860.312	18.84
860.609	14.3
860.905	10.2
861.202	7.85
861.499	9.39
861.795	8.88
862.092	6.17
862.388	4.31
862.684	6.81
862.981	5.34
863.277	5.34
863.573	0.44
863.869	2.2
864.165	2.2
864.461	0.54
864.757	0.54
865.053	0.54
865.349	1.63
865.645	3.43
865.94	3.65
866.236	2.61
866.532	7.04
866.827	7.36
867.123	7.29
867.418	9.44
867.713	9.56
868.009	9.11
868.304	10.62
868.599	10.52
868.894	12.48
869.189	10.66
869.484	13.65
869.779	14.39
870.074	14.6
870.369	15.62
870.663	15.16
870.958	13.46
871.252	12.09
871.547	8.6
871.842	7.93
872.136	5.82
872.43	7.32
872.725	4.59
873.019	4.65
873.313	5.9
873.607	4.1
873.901	2.72
874.195	5.88
874.489	8.7
874.783	11.09
875.077	11.08
875.37	14.89
875.664	12.65
875.958	17.19
876.251	17.08
876.545	16.68
876.838	16.28
877.132	20.12
877.425	18.46
877.718	15.93
878.011	15.93
878.305	16.78
878.598	14.24
878.891	15.09
879.184	12.48
879.476	11.93
879.769	7.96
880.062	6.66
880.355	3.24
880.647	3.73
880.94	2.28
881.232	0.84
881.525	0.26
881.817	0.26
882.11	0.99
882.402	0.99
882.694	0.99
882.986	0.99
883.278	1.21
883.57	1.73
883.862	2.45
884.154	3.81
884.446	4.27
884.738	4.77
885.03	5.44
885.321	5.04
885.613	5.41
885.904	5.86
886.196	6.29
886.487	5.99
886.779	5.67
887.07	5.31
887.361	5.06
887.652	5.31
887.943	4.12
888.234	4.16
888.525	4.64
888.816	4.41
889.107	5.29
889.398	5.23
889.689	6.81
889.979	6.82
890.27	8.07
890.56	9.1
890.851	9.27
891.141	12.73
891.432	12.42
891.722	12.13
