Data from thigh1_Reflection__2__14-54-32-670.txt Node

Date: Thu Aug 04 14:54:32 AEST 2022
User: kathy
Spectrometer: JAZA2503
Trigger mode: 0
Integration Time (sec): 2.439700E-1
Scans to average: 10
Electric dark correction enabled: true
Nonlinearity correction enabled: true
Boxcar width: 5
XAxis mode: Wavelengths
Number of Pixels in Spectrum: 2048
>>>>>Begin Spectral Data<<<<<
189.467	-28.13
189.852	38.93
190.237	83.57
190.622	86.27
191.007	175.79
191.392	49.87
191.777	73.38
192.162	94.68
192.546	187.46
192.931	142.12
193.316	101.97
193.701	142.65
194.086	121.5
194.47	163.84
194.855	-4159.65
195.24	-620.63
195.624	103.89
196.009	180.74
196.393	229
196.778	347.53
197.163	75.76
197.547	50.72
197.931	25.25
198.316	25.81
198.7	14.64
199.085	28.37
199.469	31.98
199.853	32.79
200.237	12.82
200.622	12.41
201.006	22.75
201.39	20.69
201.774	15.32
202.158	22.39
202.542	19.13
202.926	18.94
203.31	10.3
203.694	4.71
204.078	13.94
204.462	29.85
204.846	28.09
205.23	21.61
205.614	21.95
205.998	26.77
206.381	20.58
206.765	23.06
207.149	18.58
207.532	17.62
207.916	17.9
208.3	12
208.683	6.04
209.067	8.95
209.45	-0.95
209.834	3.16
210.217	0.04
210.601	5.31
210.984	11.05
211.367	15.37
211.751	12.34
212.134	12.07
212.517	14.45
212.901	10.94
213.284	7.39
213.667	12.43
214.05	8.1
214.433	6.87
214.816	5.34
215.199	-0.9
215.582	-2.31
215.965	-3.88
216.348	0.03
216.731	-4.7
217.114	-3.45
217.497	-4.59
217.88	-1.03
218.262	-2.8
218.645	-7.39
219.028	-7.02
219.411	-5.25
219.793	-2.35
220.176	-3.08
220.559	-1.77
220.941	-2.46
221.324	-0.93
221.706	3.41
222.089	2.32
222.471	5.36
222.853	8.4
223.236	8.74
223.618	7.94
224	6.78
224.383	8.49
224.765	6.27
225.147	7.45
225.529	7.92
225.912	4.5
226.294	2.15
226.676	0.62
227.058	-0.3
227.44	-0.77
227.822	-1.05
228.204	-0.65
228.586	-0.91
228.968	-0.58
229.349	-0.19
229.731	-0.16
230.113	0.19
230.495	0.75
230.877	1.1
231.258	1.46
231.64	1.62
232.022	1.58
232.403	1.7
232.785	1.49
233.166	1.17
233.548	0.4
233.929	0.53
234.311	0.55
234.692	0.29
235.073	0.54
235.455	0.46
235.836	0.9
236.217	1.09
236.599	1.03
236.98	1.58
237.361	2.16
237.742	2.33
238.123	2.12
238.504	1.93
238.885	1.97
239.266	1.66
239.647	1.47
240.028	1.22
240.409	1.17
240.79	1.26
241.171	1.03
241.552	0.87
241.933	0.78
242.313	0.88
242.694	1
243.075	1.02
243.456	0.98
243.836	0.97
244.217	1.07
244.597	1.12
244.978	1.03
245.358	1.18
245.739	1.05
246.119	1.18
246.5	1.19
246.88	1.18
247.26	1.13
247.641	1.08
248.021	1.1
248.401	0.99
248.781	1.01
249.162	1.14
249.542	1.07
249.922	1.1
250.302	1.17
250.682	1.05
251.062	1.02
251.442	1.02
251.822	1.05
252.202	1.17
252.582	1.29
252.961	1.39
253.341	1.25
253.721	1.37
254.101	1.38
254.48	1.3
254.86	1.34
255.24	1.43
255.619	1.38
255.999	1.39
256.378	1.22
256.758	1.22
257.137	1.05
257.517	1.03
257.896	1.02
258.276	1.01
258.655	0.81
259.034	0.74
259.414	0.62
259.793	0.65
260.172	0.65
260.551	0.6
260.93	0.45
261.309	0.49
261.688	0.39
262.068	0.34
262.447	0.32
262.825	0.38
263.204	0.25
263.583	0.14
263.962	0.03
264.341	0.11
264.72	0.12
265.099	0.23
265.477	0.3
265.856	0.32
266.235	0.33
266.613	0.43
266.992	0.48
267.371	0.64
267.749	0.8
268.128	0.84
268.506	0.78
268.884	0.84
269.263	0.8
269.641	0.68
270.02	0.73
270.398	0.62
270.776	0.54
271.154	0.52
271.533	0.47
271.911	0.48
272.289	0.48
272.667	0.49
273.045	0.5
273.423	0.56
273.801	0.61
274.179	0.61
274.557	0.67
274.935	0.62
275.313	0.64
275.69	0.7
276.068	0.72
276.446	0.71
276.824	0.64
277.201	0.58
277.579	0.57
277.957	0.5
278.334	0.49
278.712	0.47
279.089	0.49
279.467	0.39
279.844	0.41
280.222	0.35
280.599	0.31
280.976	0.38
281.354	0.34
281.731	0.25
282.108	0.28
282.485	0.28
282.863	0.29
283.24	0.39
283.617	0.44
283.994	0.44
284.371	0.48
284.748	0.57
285.125	0.52
285.502	0.56
285.879	0.65
286.256	0.67
286.633	0.73
287.009	0.77
287.386	0.73
287.763	0.78
288.139	0.78
288.516	0.83
288.893	0.84
289.269	0.92
289.646	0.96
290.022	0.98
290.399	1.02
290.775	1.04
291.152	1.07
291.528	1.1
291.904	1.07
292.281	1.07
292.657	1.07
293.033	1.06
293.41	1.05
293.786	1.08
294.162	1.1
294.538	1.09
294.914	1.09
295.29	1.12
295.666	1.17
296.042	1.24
296.418	1.32
296.794	1.34
297.17	1.44
297.546	1.48
297.921	1.53
298.297	1.57
298.673	1.62
299.048	1.68
299.424	1.71
299.8	1.78
300.175	1.8
300.551	1.83
300.926	1.91
301.302	1.94
301.677	2.01
302.053	2.05
302.428	2.1
302.803	2.17
303.179	2.24
303.554	2.29
303.929	2.33
304.304	2.43
304.68	2.52
305.055	2.55
305.43	2.59
305.805	2.66
306.18	2.68
306.555	2.73
306.93	2.78
307.305	2.81
307.679	2.88
308.054	2.89
308.429	2.87
308.804	2.87
309.179	2.87
309.553	2.87
309.928	2.86
310.303	2.88
310.677	2.93
311.052	2.91
311.426	2.92
311.801	2.9
312.175	2.89
312.55	2.95
312.924	2.98
313.298	3.01
313.673	3.04
314.047	3.05
314.421	3.05
314.795	3.02
315.17	3.05
315.544	3.09
315.918	3.15
316.292	3.22
316.666	3.24
317.04	3.25
317.414	3.32
317.788	3.39
318.162	3.5
318.535	3.61
318.909	3.73
319.283	3.83
319.657	3.89
320.03	4
320.404	4.09
320.778	4.37
321.151	4.61
321.525	4.9
321.898	5.28
322.272	5.61
322.645	6.04
323.019	6.47
323.392	7.01
323.765	7.61
324.139	8.26
324.512	8.95
324.885	9.66
325.258	10.36
325.632	10.9
326.005	11.44
326.378	11.91
326.751	12.26
327.124	12.52
327.497	12.68
327.87	12.86
328.243	12.91
328.616	13.03
328.988	13.08
329.361	13.11
329.734	13.17
330.107	13.11
330.479	13.05
330.852	12.94
331.225	12.93
331.597	12.87
331.97	12.73
332.342	12.58
332.715	12.5
333.087	12.36
333.46	12.22
333.832	12.19
334.204	12.19
334.577	12.2
334.949	12.24
335.321	12.28
335.693	12.19
336.065	12.09
336.438	11.9
336.81	11.77
337.182	11.63
337.554	11.51
337.926	11.43
338.298	11.33
338.669	11.31
339.041	11.21
339.413	11.2
339.785	11.19
340.157	11.14
340.528	11.11
340.9	11.04
341.272	11
341.643	10.96
342.015	10.99
342.386	10.97
342.758	11.03
343.129	11.08
343.501	11.11
343.872	11.1
344.243	11.11
344.615	11.11
344.986	11.13
345.357	11.11
345.728	11.06
346.099	11.12
346.471	11.09
346.842	11.09
347.213	11.07
347.584	11.09
347.955	11.09
348.326	11.07
348.697	11.02
349.067	11
349.438	11.02
349.809	11.07
350.18	11.12
350.55	11.14
350.921	11.16
351.292	11.24
351.662	11.26
352.033	11.26
352.403	11.28
352.774	11.27
353.144	11.3
353.515	11.32
353.885	11.32
354.255	11.31
354.626	11.28
354.996	11.27
355.366	11.25
355.736	11.27
356.107	11.26
356.477	11.26
356.847	11.29
357.217	11.3
357.587	11.3
357.957	11.31
358.327	11.32
358.697	11.35
359.066	11.37
359.436	11.4
359.806	11.41
360.176	11.44
360.546	11.46
360.915	11.48
361.285	11.48
361.654	11.48
362.024	11.47
362.393	11.49
362.763	11.5
363.132	11.5
363.502	11.49
363.871	11.48
364.24	11.49
364.61	11.49
364.979	11.5
365.348	11.51
365.717	11.53
366.087	11.54
366.456	11.54
366.825	11.55
367.194	11.56
367.563	11.59
367.932	11.59
368.301	11.6
368.669	11.63
369.038	11.65
369.407	11.67
369.776	11.68
370.145	11.71
370.513	11.73
370.882	11.74
371.25	11.79
371.619	11.75
371.988	11.75
372.356	11.73
372.724	11.73
373.093	11.73
373.461	11.74
373.83	11.74
374.198	11.74
374.566	11.74
374.934	11.74
375.303	11.75
375.671	11.78
376.039	11.82
376.407	11.84
376.775	11.85
377.143	11.87
377.511	11.87
377.879	11.87
378.247	11.87
378.615	11.88
378.982	11.88
379.35	11.85
379.718	11.84
380.086	11.84
380.453	11.83
380.821	11.81
381.188	11.8
381.556	11.81
381.923	11.82
382.291	11.84
382.658	11.83
383.026	11.86
383.393	11.87
383.76	11.9
384.128	11.92
384.495	11.95
384.862	11.98
385.229	11.99
385.596	12
385.963	11.98
386.33	11.98
386.697	12.02
387.064	12
387.431	12.01
387.798	11.99
388.165	11.97
388.532	11.97
388.899	11.96
389.265	11.96
389.632	11.96
389.999	11.98
390.365	11.99
390.732	12
391.098	11.99
391.465	11.99
391.831	12
392.198	12
392.564	11.97
392.93	11.97
393.297	11.97
393.663	11.98
394.029	11.97
394.395	11.99
394.762	11.97
395.128	11.97
395.494	11.97
395.86	11.99
396.226	12.01
396.592	12.04
396.958	12.04
397.323	12.03
397.689	12.04
398.055	12.05
398.421	12.04
398.787	12.05
399.152	12.07
399.518	12.11
399.883	12.11
400.249	12.11
400.615	12.11
400.98	12.12
401.345	12.14
401.711	12.13
402.076	12.11
402.442	12.12
402.807	12.12
403.172	12.11
403.537	12.08
403.902	12.09
404.268	12.08
404.633	12.06
404.998	12.06
405.363	12.03
405.728	12.04
406.093	12.06
406.457	12.06
406.822	12.06
407.187	12.06
407.552	12.08
407.917	12.07
408.281	12.06
408.646	12.08
409.011	12.1
409.375	12.14
409.74	12.14
410.104	12.12
410.469	12.12
410.833	12.12
411.197	12.1
411.562	12.08
411.926	12.09
412.29	12.1
412.655	12.1
413.019	12.07
413.383	12.06
413.747	12.05
414.111	12.06
414.475	12.06
414.839	12.08
415.203	12.11
415.567	12.12
415.931	12.14
416.295	12.15
416.658	12.13
417.022	12.15
417.386	12.15
417.749	12.15
418.113	12.15
418.477	12.16
418.84	12.16
419.204	12.15
419.567	12.12
419.931	12.11
420.294	12.09
420.657	12.1
421.021	12.11
421.384	12.09
421.747	12.11
422.11	12.1
422.473	12.08
422.836	12.07
423.199	12.07
423.562	12.07
423.925	12.05
424.288	12.05
424.651	12.05
425.014	12.06
425.377	12.08
425.74	12.06
426.102	12.06
426.465	12.06
426.828	12.05
427.19	12.05
427.553	12.05
427.916	12.04
428.278	12.04
428.641	12.01
429.003	11.99
429.365	11.96
429.728	11.95
430.09	11.93
430.452	11.91
430.814	11.89
431.177	11.87
431.539	11.84
431.901	11.84
432.263	11.85
432.625	11.86
432.987	11.85
433.349	11.83
433.711	11.84
434.072	11.85
434.434	11.87
434.796	11.87
435.158	11.89
435.519	11.92
435.881	11.91
436.243	11.89
436.604	11.89
436.966	11.88
437.327	11.93
437.689	11.94
438.05	11.92
438.411	11.91
438.773	11.95
439.134	11.96
439.495	11.95
439.856	11.93
440.218	11.93
440.579	11.92
440.94	11.92
441.301	11.91
441.662	11.93
442.023	11.94
442.384	11.94
442.745	11.92
443.105	11.89
443.466	11.91
443.827	11.94
444.188	11.95
444.548	11.96
444.909	11.96
445.269	11.94
445.63	11.9
445.99	11.89
446.351	11.9
446.711	11.9
447.072	11.9
447.432	11.89
447.792	11.88
448.153	11.89
448.513	11.89
448.873	11.89
449.233	11.87
449.593	11.86
449.953	11.86
450.313	11.85
450.673	11.83
451.033	11.82
451.393	11.79
451.753	11.76
452.113	11.8
452.472	11.78
452.832	11.76
453.192	11.74
453.551	11.72
453.911	11.7
454.271	11.68
454.63	11.67
454.989	11.67
455.349	11.66
455.708	11.66
456.068	11.63
456.427	11.63
456.786	11.63
457.145	11.64
457.505	11.64
457.864	11.65
458.223	11.65
458.582	11.67
458.941	11.67
459.3	11.67
459.659	11.66
460.018	11.64
460.376	11.64
460.735	11.64
461.094	11.63
461.453	11.62
461.811	11.6
462.17	11.59
462.529	11.58
462.887	11.56
463.246	11.56
463.604	11.55
463.963	11.55
464.321	11.56
464.679	11.55
465.038	11.55
465.396	11.55
465.754	11.56
466.112	11.55
466.47	11.54
466.828	11.54
467.186	11.54
467.544	11.53
467.902	11.54
468.26	11.5
468.618	11.5
468.976	11.5
469.334	11.49
469.692	11.47
470.049	11.47
470.407	11.46
470.765	11.46
471.122	11.47
471.48	11.49
471.837	11.48
472.195	11.51
472.552	11.53
472.909	11.52
473.267	11.52
473.624	11.53
473.981	11.54
474.338	11.56
474.696	11.55
475.053	11.54
475.41	11.53
475.767	11.55
476.124	11.54
476.481	11.53
476.838	11.53
477.194	11.53
477.551	11.54
477.908	11.54
478.265	11.52
478.621	11.54
478.978	11.56
479.335	11.59
479.691	11.6
480.048	11.61
480.404	11.61
480.761	11.63
481.117	11.63
481.473	11.64
481.83	11.64
482.186	11.65
482.542	11.64
482.898	11.62
483.255	11.59
483.611	11.58
483.967	11.57
484.323	11.58
484.679	11.56
485.035	11.56
485.39	11.57
485.746	11.56
486.102	11.56
486.458	11.56
486.814	11.57
487.169	11.58
487.525	11.57
487.88	11.55
488.236	11.54
488.591	11.52
488.947	11.5
489.302	11.48
489.658	11.48
490.013	11.46
490.368	11.44
490.723	11.42
491.079	11.42
491.434	11.41
491.789	11.41
492.144	11.39
492.499	11.38
492.854	11.39
493.209	11.38
493.564	11.38
493.919	11.35
494.273	11.35
494.628	11.34
494.983	11.32
495.338	11.3
495.692	11.3
496.047	11.29
496.401	11.28
496.756	11.25
497.11	11.22
497.465	11.19
497.819	11.17
498.173	11.14
498.528	11.14
498.882	11.12
499.236	11.12
499.59	11.1
499.944	11.1
500.298	11.1
500.652	11.1
501.006	11.1
501.36	11.09
501.714	11.08
502.068	11.07
502.422	11.06
502.776	11.05
503.129	11.04
503.483	11.02
503.837	11
504.19	10.98
504.544	10.96
504.897	10.92
505.251	10.9
505.604	10.91
505.958	10.89
506.311	10.86
506.664	10.83
507.017	10.78
507.371	10.76
507.724	10.72
508.077	10.69
508.43	10.65
508.783	10.65
509.136	10.63
509.489	10.57
509.842	10.54
510.195	10.53
510.547	10.49
510.9	10.48
511.253	10.45
511.606	10.43
511.958	10.39
512.311	10.38
512.663	10.33
513.016	10.29
513.368	10.27
513.721	10.25
514.073	10.22
514.425	10.22
514.778	10.2
515.13	10.18
515.482	10.15
515.834	10.14
516.186	10.12
516.538	10.1
516.89	10.1
517.242	10.08
517.594	10.06
517.946	10.04
518.298	10.01
518.65	10
519.001	9.98
519.353	9.98
519.705	9.96
520.056	9.93
520.408	9.93
520.759	9.89
521.111	9.88
521.462	9.86
521.814	9.84
522.165	9.82
522.516	9.79
522.868	9.76
523.219	9.73
523.57	9.7
523.921	9.68
524.272	9.64
524.623	9.64
524.974	9.6
525.325	9.56
525.676	9.55
526.027	9.51
526.378	9.49
526.728	9.46
527.079	9.45
527.43	9.42
527.78	9.4
528.131	9.37
528.481	9.31
528.832	9.27
529.182	9.26
529.533	9.23
529.883	9.21
530.233	9.2
530.584	9.18
530.934	9.12
531.284	9.09
531.634	9.05
531.984	9.04
532.334	9.04
532.684	9.02
533.034	9.01
533.384	9
533.734	8.98
534.084	8.92
534.434	8.88
534.783	8.88
535.133	8.87
535.483	8.86
535.832	8.83
536.182	8.79
536.531	8.76
536.881	8.71
537.23	8.69
537.58	8.67
537.929	8.67
538.278	9.25
538.628	9.24
538.977	9.21
539.326	9.18
539.675	9.14
540.024	9.13
540.373	9.1
540.722	9.1
541.071	9.09
541.42	9.07
541.769	9.04
542.117	8.43
542.466	8.39
542.815	8.35
543.163	8.34
543.512	8.33
543.861	8.32
544.209	8.32
544.558	8.29
544.906	8.26
545.254	8.23
545.603	8.2
545.951	8.19
546.299	8.17
546.647	8.17
546.996	8.14
547.344	8.11
547.692	8.09
548.04	8.08
548.388	8.06
548.736	8.02
549.083	7.98
549.431	7.97
549.779	7.92
550.127	7.9
550.475	7.85
550.822	7.81
551.17	7.8
551.517	7.79
551.865	7.74
552.212	7.72
552.56	7.69
552.907	7.69
553.254	7.68
553.602	7.68
553.949	7.68
554.296	7.68
554.643	7.68
554.99	7.63
555.337	7.59
555.684	7.58
556.031	7.56
556.378	7.54
556.725	7.49
557.072	7.47
557.419	7.45
557.765	7.39
558.112	7.37
558.459	7.34
558.805	7.33
559.152	7.29
559.498	7.26
559.845	7.26
560.191	7.25
560.538	7.22
560.884	7.18
561.23	7.14
561.576	7.12
561.923	7.1
562.269	7.09
562.615	7.08
562.961	7.07
563.307	7.05
563.653	7.02
563.999	7
564.344	6.99
564.69	6.98
565.036	6.98
565.382	6.97
565.727	6.92
566.073	6.89
566.419	6.86
566.764	6.83
567.11	6.83
567.455	6.8
567.8	6.78
568.146	6.77
568.491	6.76
568.836	6.73
569.181	6.72
569.527	6.69
569.872	6.68
570.217	6.64
570.562	6.62
570.907	6.61
571.252	6.6
571.597	6.58
571.941	6.56
572.286	6.54
572.631	6.54
572.976	6.54
573.32	6.54
573.665	6.53
574.009	6.54
574.354	6.55
574.698	6.54
575.043	6.54
575.387	6.53
575.731	6.52
576.076	6.53
576.42	6.49
576.764	6.48
577.108	6.42
577.452	6.41
577.796	6.39
578.14	6.37
578.484	6.34
578.828	6.33
579.172	6.32
579.516	6.32
579.86	6.31
580.203	6.31
580.547	6.31
580.891	6.3
581.234	6.28
581.578	6.24
581.921	6.2
582.264	6.18
582.608	6.17
582.951	6.18
583.294	6.19
583.638	6.19
583.981	6.19
584.324	6.19
584.667	6.21
585.01	6.19
585.353	6.17
585.696	6.17
586.039	6.16
586.382	6.16
586.725	6.17
587.067	6.16
587.41	6.16
587.753	6.15
588.095	6.13
588.438	6.12
588.781	6.12
589.123	6.13
589.465	6.13
589.808	6.13
590.15	6.13
590.492	6.11
590.835	6.1
591.177	6.1
591.519	6.09
591.861	6.09
592.203	6.08
592.545	6.11
592.887	6.11
593.229	6.09
593.571	6.08
593.913	6.08
594.254	6.05
594.596	6.05
594.938	6.03
595.279	6.02
595.621	6.02
595.963	6.01
596.304	6
596.645	6
596.987	6
597.328	6
597.669	5.99
598.011	5.97
598.352	5.96
598.693	5.96
599.034	5.95
599.375	5.94
599.716	5.91
600.057	5.9
600.398	5.88
600.739	5.89
601.08	5.9
601.42	5.88
601.761	5.87
602.102	5.89
602.442	5.89
602.783	5.86
603.123	5.85
603.464	5.82
603.804	5.81
604.145	5.8
604.485	5.77
604.825	5.75
605.166	5.74
605.506	5.74
605.846	5.75
606.186	5.73
606.526	5.69
606.866	5.69
607.206	5.69
607.546	5.67
607.886	5.65
608.225	5.65
608.565	5.63
608.905	5.62
609.245	5.6
609.584	5.59
609.924	5.58
610.263	5.61
610.603	5.62
610.942	5.63
611.281	5.66
611.621	5.66
611.96	5.66
612.299	5.67
612.638	5.7
612.978	5.7
613.317	5.71
613.656	5.72
613.995	5.72
614.334	5.72
614.672	5.72
615.011	5.71
615.35	5.7
615.689	5.68
616.027	5.68
616.366	5.69
616.705	5.69
617.043	5.66
617.382	5.66
617.72	5.62
618.059	5.58
618.397	5.57
618.735	5.6
619.073	5.6
619.412	5.59
619.75	5.58
620.088	5.56
620.426	5.53
620.764	5.5
621.102	5.5
621.44	5.49
621.778	5.44
622.115	5.43
622.453	5.44
622.791	5.45
623.129	5.45
623.466	5.43
623.804	5.41
624.141	5.4
624.479	5.39
624.816	5.37
625.153	5.35
625.491	5.33
625.828	5.31
626.165	5.29
626.502	5.29
626.84	5.27
627.177	5.24
627.514	5.24
627.851	5.25
628.188	5.28
628.524	5.24
628.861	5.23
629.198	5.24
629.535	5.19
629.871	5.17
630.208	5.17
630.545	5.14
630.881	5.08
631.218	5.03
631.554	5.04
631.89	5
632.227	4.99
632.563	5.02
632.899	4.98
633.235	4.98
633.572	4.98
633.908	4.91
634.244	4.91
634.58	4.92
634.916	4.93
635.251	4.92
635.587	4.93
635.923	4.95
636.259	4.9
636.595	4.85
636.93	4.86
637.266	4.9
637.601	4.89
637.937	4.85
638.272	4.83
638.608	4.85
638.943	4.82
639.278	4.77
639.613	4.79
639.949	4.79
640.284	4.78
640.619	4.8
640.954	4.75
641.289	4.77
641.624	4.8
641.959	4.81
642.294	4.75
642.628	4.72
642.963	4.78
643.298	4.7
643.632	4.74
643.967	4.72
644.302	4.68
644.636	4.66
644.971	4.59
645.305	4.59
645.639	4.58
645.974	4.59
646.308	4.55
646.642	4.46
646.976	4.51
647.31	4.44
647.644	4.47
647.978	4.49
648.312	4.5
648.646	4.56
648.98	4.58
649.314	4.54
649.647	4.52
649.981	4.56
650.315	4.59
650.648	4.56
650.982	4.6
651.315	4.55
651.649	4.55
651.982	4.56
652.316	4.51
652.649	4.48
652.982	4.52
653.315	4.55
653.648	4.57
653.982	4.62
654.315	4.61
654.648	4.59
654.981	4.63
655.313	4.63
655.646	4.63
655.979	4.62
656.312	4.62
656.644	4.57
656.977	4.51
657.31	4.48
657.642	4.37
657.975	4.35
658.307	4.29
658.64	4.26
658.972	4.24
659.304	4.22
659.636	4.24
659.969	4.17
660.301	4.13
660.633	4.14
660.965	4.11
661.297	4.21
661.629	4.21
661.961	4.18
662.292	4.19
662.624	4.2
662.956	4.17
663.288	4.14
663.619	4.2
663.951	4.21
664.282	4.17
664.614	4.18
664.945	4.14
665.276	4.13
665.608	4.2
665.939	4.18
666.27	4.14
666.601	4.21
666.933	4.22
667.264	4.15
667.595	4.2
667.926	4.2
668.256	4.17
668.587	4.15
668.918	4.13
669.249	4.12
669.58	4.13
669.91	4.16
670.241	4.03
670.571	4.07
670.902	4.08
671.232	4.05
671.563	4.06
671.893	4.05
672.223	3.99
672.554	4.07
672.884	4.08
673.214	4.08
673.544	4.04
673.874	4.09
674.204	4.06
674.534	4.05
674.864	4.07
675.194	4.1
675.524	4.08
675.853	4.02
676.183	3.91
676.513	3.95
676.842	3.94
677.172	3.96
677.501	3.98
677.831	3.97
678.16	3.94
678.489	3.94
678.819	3.97
679.148	4.05
679.477	4.22
679.806	4.22
680.135	4.14
680.464	4.13
680.793	4.04
681.122	4.02
681.451	4.01
681.78	3.96
682.108	3.95
682.437	3.79
682.766	3.66
683.094	3.55
683.423	3.52
683.751	3.5
684.08	3.43
684.408	3.48
684.737	3.42
685.065	3.31
685.393	3.43
685.721	3.36
686.049	3.52
686.377	3.49
686.705	3.51
687.033	3.6
687.361	3.63
687.689	3.66
688.017	3.68
688.345	3.71
688.673	3.87
689.0	3.84
689.328	3.9
689.655	3.88
689.983	3.95
690.31	3.99
690.638	3.95
690.965	3.9
691.292	3.97
691.62	3.99
691.947	3.92
692.274	3.81
692.601	3.75
692.928	3.77
693.255	3.68
693.582	3.69
693.909	3.63
694.236	3.49
694.562	3.49
694.889	3.43
695.216	3.41
695.542	3.5
695.869	3.51
696.196	3.54
696.522	3.48
696.848	3.5
697.175	3.54
697.501	3.57
697.827	3.7
698.154	3.69
698.48	3.63
698.806	3.67
699.132	3.64
699.458	3.62
699.784	3.65
700.11	3.6
700.435	3.63
700.761	3.55
701.087	3.46
701.413	3.39
701.738	3.44
702.064	3.42
702.389	3.28
702.715	3.31
703.04	3.25
703.366	3.25
703.691	3.33
704.016	3.33
704.341	3.4
704.666	3.46
704.992	3.53
705.317	3.52
705.642	3.58
705.967	3.63
706.291	3.59
706.616	3.6
706.941	3.6
707.266	3.69
707.59	3.64
707.915	3.63
708.24	3.53
708.564	3.45
708.889	3.44
709.213	3.4
709.537	3.29
709.862	3.19
710.186	3.31
710.51	3.08
710.834	2.94
711.158	2.88
711.482	2.88
711.806	2.95
712.13	2.93
712.454	2.92
712.778	3.02
713.102	3.13
713.426	3.2
713.749	3.17
714.073	3.4
714.396	3.43
714.72	3.48
715.043	3.53
715.367	3.65
715.69	3.71
716.013	3.71
716.337	3.65
716.66	3.77
716.983	3.86
717.306	3.92
717.629	3.93
717.952	3.88
718.275	3.92
718.598	3.79
718.921	3.64
719.243	3.8
719.566	3.81
719.889	3.92
720.211	3.83
720.534	3.75
720.856	3.65
721.179	3.49
721.501	3.53
721.823	3.63
722.146	3.56
722.468	3.55
722.79	3.22
723.112	3.2
723.434	3.13
723.756	3.22
724.078	3.32
724.4	3.3
724.722	3.51
725.044	3.56
725.366	3.36
725.687	3.45
726.009	3.49
726.33	3.64
726.652	3.64
726.973	3.7
727.295	3.52
727.616	3.43
727.938	3.54
728.259	3.49
728.58	3.43
728.901	3.44
729.222	3.59
729.543	3.59
729.864	3.45
730.185	3.42
730.506	3.21
730.827	3.37
731.148	3.27
731.468	3.16
731.789	3.02
732.11	3.01
732.43	3.04
732.751	3.05
733.071	3.1
733.392	3.25
733.712	3.4
734.032	3.43
734.352	3.28
734.673	3.3
734.993	3.25
735.313	3.4
735.633	3.46
735.953	3.47
736.273	3.31
736.593	3.37
736.912	3.27
737.232	3.14
737.552	3.29
737.871	3.19
738.191	3.41
738.51	3.69
738.83	3.47
739.149	3.38
739.469	3.45
739.788	3.52
740.107	3.49
740.426	3.55
740.746	3.48
741.065	3.41
741.384	3.38
741.703	3.24
742.022	3.02
742.341	3.18
742.659	3.39
742.978	3.39
743.297	3.22
743.615	2.9
743.934	2.92
744.253	3.09
744.571	3.36
744.89	3.48
745.208	3.28
745.526	3.38
745.845	3.3
746.163	3.16
746.481	3.25
746.799	3.26
747.117	3.33
747.435	3.12
747.753	3.05
748.071	2.68
748.389	2.62
748.706	2.7
749.024	2.7
749.342	2.7
749.659	2.75
749.977	2.39
750.295	2.46
750.612	2.51
750.929	2.62
751.247	2.42
751.564	2.45
751.881	2.6
752.198	2.7
752.516	2.73
752.833	2.75
753.15	2.56
753.467	2.81
753.783	2.83
754.1	3
754.417	3.03
754.734	3.15
755.05	3.5
755.367	3.52
755.684	3.66
756.0	3.5
756.317	3.37
756.633	3.47
756.949	3.65
757.266	3.67
757.582	3.49
757.898	3.62
758.214	3.79
758.53	3.53
758.846	3.52
759.162	3.53
759.478	3.5
759.794	3.66
760.11	3.8
760.426	3.53
760.741	3.47
761.057	3.73
761.372	3.44
761.688	3.37
762.003	3.61
762.319	3.43
762.634	3.47
762.949	3.35
763.265	3.3
763.58	3.17
763.895	3.09
764.21	3.19
764.525	3.09
764.84	3.22
765.155	3.16
765.47	2.96
765.785	2.98
766.099	2.82
766.414	2.89
766.729	3
767.043	3.13
767.358	3.13
767.672	3.18
767.987	3.13
768.301	3.24
768.615	3.3
768.929	3.18
769.244	2.98
769.558	3.09
769.872	3.32
770.186	3.19
770.5	3.05
770.814	3.2
771.127	2.95
771.441	2.81
771.755	2.57
772.069	2.19
772.382	2.54
772.696	3.02
773.009	2.56
773.323	2.36
773.636	2.26
773.95	1.91
774.263	1.81
774.576	1.61
774.889	1.9
775.202	2.14
775.515	2.55
775.828	2.2
776.141	1.99
776.454	2.26
776.767	1.79
777.08	1.61
777.393	2.45
777.705	2.22
778.018	2.43
778.33	2.08
778.643	1.86
778.955	1.93
779.268	2.4
779.58	2.59
779.892	2.7
780.205	3.63
780.517	4.24
780.829	3.9
781.141	4.34
781.453	4.45
781.765	4.82
782.077	4.74
782.388	4.32
782.7	3.65
783.012	3.68
783.324	3.64
783.635	3.53
783.947	3.23
784.258	3.43
784.57	3.53
784.881	3.33
785.192	4.01
785.504	4.09
785.815	4.47
786.126	4.26
786.437	3.92
786.748	3.93
787.059	3.12
787.37	3.05
787.681	2.91
787.992	2.55
788.302	2.77
788.613	1.92
788.924	1.67
789.234	1.68
789.545	2.37
789.855	2.73
790.166	2.69
790.476	2.8
790.786	2.39
791.096	1.84
791.407	1.6
791.717	1.44
792.027	1.41
792.337	1.95
792.647	1.9
792.957	1.34
793.266	1.16
793.576	1.09
793.886	2.05
794.196	2.77
794.505	3.64
794.815	3.65
795.124	3.68
795.434	4.16
795.743	4.33
796.052	4.27
796.362	4.92
796.671	5.26
796.98	5.66
797.289	4.88
797.598	4.11
797.907	3.8
798.216	4.2
798.525	4.17
798.834	3.7
799.142	3.72
799.451	3.88
799.76	3.63
800.068	3.46
800.377	2.69
800.685	2.82
800.994	3.43
801.302	3.09
801.61	3.05
801.918	3.12
802.227	3.21
802.535	2.68
802.843	2.4
803.151	1.54
803.459	1.02
803.767	1.5
804.074	1.76
804.382	1.69
804.69	1.75
804.998	1.74
805.305	2.36
805.613	2.84
805.92	2.93
806.228	2.92
806.535	3.2
806.842	3.06
807.15	2.82
807.457	2.15
807.764	2.24
808.071	2.01
808.378	2.88
808.685	2.68
808.992	2.03
809.299	1.52
809.605	2.03
809.912	2.96
810.219	2.49
810.525	3.08
810.832	3.68
811.138	3.76
811.445	3.99
811.751	2.91
812.058	1.98
812.364	2.58
812.67	3.66
812.976	3.96
813.282	4.1
813.588	4.88
813.894	5.01
814.2	5.32
814.506	5.19
814.812	6.01
815.118	6.65
815.423	7.23
815.729	5.7
816.035	4.98
816.34	4.21
816.646	4.23
816.951	4.22
817.256	3.33
817.562	3.57
817.867	3.34
818.172	2.81
818.477	2.47
818.782	3.94
819.087	4.87
819.392	5.59
819.697	5.32
820.002	4.33
820.306	4.1
820.611	4.61
820.916	4.38
821.22	4.65
821.525	4.37
821.829	4.28
822.134	3.63
822.438	3.6
822.742	3.32
823.047	3.73
823.351	4.15
823.655	3.96
823.959	3.74
824.263	3.56
824.567	3.57
824.871	3.48
825.174	3.47
825.478	3.66
825.782	3.74
826.086	3.9
826.389	3.72
826.693	3.42
826.996	3.54
827.3	3.71
827.603	3.78
827.906	3.78
828.209	3.83
828.513	3.44
828.816	3.26
829.119	3
829.422	2.79
829.725	2.81
830.028	2.93
830.33	3.23
830.633	3.36
830.936	3.13
831.238	2.66
831.541	2.87
831.844	3.67
832.146	3.42
832.448	3.64
832.751	3.78
833.053	3.79
833.355	3.91
833.657	3.61
833.96	3.24
834.262	3.44
834.564	3.91
834.865	3.97
835.167	4.11
835.469	3.56
835.771	3.4
836.073	2.99
836.374	2.91
836.676	2.7
836.977	2.81
837.279	2.73
837.58	3.08
837.882	3.38
838.183	2.52
838.484	1.99
838.785	2.86
839.086	3.23
839.387	3.6
839.688	4.25
839.989	4.11
840.29	4.15
840.591	4.42
840.892	3.91
841.192	3.97
841.493	3.63
841.794	3.92
842.094	3.92
842.394	3.88
842.695	4.24
842.995	3.27
843.295	3.79
843.596	3.88
843.896	3.35
844.196	4.16
844.496	3.44
844.796	3.65
845.096	2.94
845.396	2.25
845.695	2.97
845.995	3.63
846.295	3.44
846.594	4.01
846.894	3.98
847.194	4.95
847.493	4.63
847.792	3.31
848.092	4.99
848.391	5.65
848.69	6.7
848.989	6.4
849.288	4.41
849.587	3.07
849.886	0.51
850.185	0.7
850.484	1.59
850.783	1.63
851.081	2.96
851.38	2.21
851.679	0.34
851.977	0.34
852.276	0.34
852.574	0.34
852.872	0.34
853.171	0.34
853.469	0.34
853.767	0.34
854.065	0.34
854.363	0.34
854.661	0.34
854.959	0.34
855.257	0.34
855.555	0.93
855.853	1.74
856.15	2.45
856.448	3.37
856.746	4.7
857.043	5.94
857.341	9.97
857.638	8.69
857.935	7.02
858.233	5.78
858.53	4.92
858.827	3.76
859.124	3.92
859.421	3.24
859.718	5.19
860.015	4.52
860.312	5.21
860.609	4.31
860.905	4.41
861.202	8.44
861.499	8.08
861.795	10
862.092	9.72
862.388	7.79
862.684	8.17
862.981	2.39
863.277	1.87
863.573	2.82
863.869	0.24
864.165	0.24
864.461	0.24
864.757	0.24
865.053	0.24
865.349	0.24
865.645	0.24
865.94	0.24
866.236	0.24
866.532	0.24
866.827	0.24
867.123	0.24
867.418	1.94
867.713	5.82
868.009	5.24
868.304	5.79
868.599	10.71
868.894	12.52
869.189	15.45
869.484	14.84
869.779	12.33
870.074	9.1
870.369	8.81
870.663	7.96
870.958	4.52
871.252	4.13
871.547	3.83
871.842	3.83
872.136	3.83
872.43	3.83
872.725	2
873.019	1.39
873.313	3.36
873.607	2.79
873.901	1.58
874.195	5.96
874.489	8.44
874.783	8.23
875.077	7.44
875.37	3.56
875.664	5.58
875.958	5.58
876.251	1.76
876.545	1.32
876.838	1.82
877.132	0.05
877.425	0.97
877.718	0.97
878.011	0.97
878.305	3.7
878.598	6.76
878.891	5.41
879.184	8.37
879.476	9.21
879.769	9.73
880.062	7.28
880.355	8.86
880.647	5.67
880.94	5.72
881.232	5.61
881.525	3.28
881.817	3.28
882.11	3.28
882.402	3.28
882.694	3.28
882.986	0.31
883.278	2.55
883.57	3.78
883.862	4.64
884.154	4.91
884.446	5.11
884.738	5.71
885.03	7.15
885.321	7.21
885.613	7.39
885.904	7.05
886.196	7.63
886.487	7.64
886.779	7.71
887.07	7.11
887.361	6.79
887.652	6.72
887.943	6.01
888.234	5.48
888.525	5.47
888.816	6.23
889.107	7.34
889.398	6.78
889.689	7.55
889.979	7
890.27	6.38
890.56	7.2
890.851	7.19
891.141	9.47
891.432	10.26
891.722	11.79
